Wavelength (nm),split 92 <125 µm
300.0,0.069058
305.0,0.069252
310.0,0.070823
315.0,0.074713
320.0,0.079134
325.0,0.083104
330.0,0.087733
335.0,0.093737
340.0,0.099702
345.0,0.10602
350.0,0.11262
355.0,0.11999
360.0,0.12746
365.0,0.13484
370.0,0.14202
375.0,0.14882
380.0,0.15526
385.0,0.16231
390.0,0.1674
395.0,0.17275
400.0,0.17808
405.0,0.18402
410.0,0.18815
415.0,0.1926
420.0,0.1962
425.0,0.19883
430.0,0.20147
435.0,0.20463
440.0,0.2074
445.0,0.20989
450.0,0.21251
455.0,0.2155
460.0,0.21956
465.0,0.22242
470.0,0.22462
475.0,0.22744
480.0,0.23045
485.0,0.23384
490.0,0.23665
495.0,0.24028
500.0,0.24331
505.0,0.24208
510.0,0.24805
515.0,0.25356
520.0,0.25736
525.0,0.26032
530.0,0.2637
535.0,0.26539
540.0,0.26648
545.0,0.26723
550.0,0.2688
555.0,0.272
560.0,0.27459
565.0,0.27686
570.0,0.27842
575.0,0.28009
580.0,0.28187
585.0,0.28317
590.0,0.28455
595.0,0.28585
600.0,0.28671
605.0,0.28751
610.0,0.28841
615.0,0.28977
620.0,0.29038
625.0,0.29083
630.0,0.29215
635.0,0.29289
640.0,0.29352
645.0,0.29424
650.0,0.29452
655.0,0.29538
660.0,0.29569
665.0,0.29583
670.0,0.29659
675.0,0.2969
680.0,0.29761
685.0,0.29806
690.0,0.29788
695.0,0.29759
700.0,0.29838
705.0,0.2975
710.0,0.29788
715.0,0.29735
720.0,0.29709
725.0,0.29618
730.0,0.29554
735.0,0.29407
740.0,0.29242
745.0,0.29076
750.0,0.28657
755.0,0.28366
760.0,0.28065
765.0,0.27656
770.0,0.27268
775.0,0.26761
780.0,0.26243
785.0,0.25678
790.0,0.2511
795.0,0.2442
800.0,0.23788
805.0,0.23056
810.0,0.22326
815.0,0.21585
820.0,0.20814
825.0,0.20087
830.0,0.19392
835.0,0.18703
840.0,0.18006
845.0,0.17373
850.0,0.1677
855.0,0.16391
860.0,0.15887
865.0,0.15428
870.0,0.14957
875.0,0.14535
880.0,0.14179
885.0,0.13806
890.0,0.13533
895.0,0.13268
900.0,0.13042
905.0,0.12858
910.0,0.12708
915.0,0.12591
920.0,0.12538
925.0,0.1247
930.0,0.12481
935.0,0.125
940.0,0.12576
945.0,0.12692
950.0,0.12851
955.0,0.13018
960.0,0.1325
965.0,0.13514
970.0,0.13818
975.0,0.14191
980.0,0.14589
985.0,0.1502
990.0,0.15497
995.0,0.15966
1000.0,0.16519
1005.0,0.17079
1010.0,0.17644
1015.0,0.18246
1020.0,0.18841
1025.0,0.1944
1030.0,0.20066
1035.0,0.20673
1040.0,0.21243
1045.0,0.21859
1050.0,0.22408
1055.0,0.22896
1060.0,0.23442
1065.0,0.23897
1070.0,0.24336
1075.0,0.24763
1080.0,0.25103
1085.0,0.25483
1090.0,0.2578
1095.0,0.26063
1100.0,0.26291
1105.0,0.26506
1110.0,0.26754
1115.0,0.26935
1120.0,0.27067
1125.0,0.272
1130.0,0.27366
1135.0,0.2748
1140.0,0.27627
1145.0,0.27694
1150.0,0.27819
1155.0,0.27911
1160.0,0.28049
1165.0,0.28106
1170.0,0.28233
1175.0,0.28279
1180.0,0.2838
1185.0,0.28449
1190.0,0.28538
1195.0,0.28607
1200.0,0.28727
1205.0,0.28815
1210.0,0.28927
1215.0,0.29019
1220.0,0.29022
1225.0,0.29126
1230.0,0.29253
1235.0,0.2934
1240.0,0.29406
1245.0,0.29512
1250.0,0.29578
1255.0,0.29647
1260.0,0.29705
1265.0,0.29821
1270.0,0.29876
1275.0,0.29954
1280.0,0.30046
1285.0,0.30047
1290.0,0.30203
1295.0,0.30238
1300.0,0.30399
1305.0,0.30402
1310.0,0.30494
1315.0,0.30562
1320.0,0.30637
1325.0,0.30724
1330.0,0.30786
1335.0,0.30867
1340.0,0.3089
1345.0,0.30916
1350.0,0.3097
1355.0,0.30952
1360.0,0.30982
1365.0,0.31021
1370.0,0.31075
1375.0,0.31126
1380.0,0.31145
1385.0,0.31134
1390.0,0.31167
1395.0,0.3118
1400.0,0.31171
1405.0,0.31213
1410.0,0.31245
1415.0,0.31204
1420.0,0.31172
1425.0,0.31185
1430.0,0.31107
1435.0,0.31119
1440.0,0.31121
1445.0,0.31055
1450.0,0.31031
1455.0,0.30927
1460.0,0.309
1465.0,0.30805
1470.0,0.30721
1475.0,0.30691
1480.0,0.30612
1485.0,0.30477
1490.0,0.30358
1495.0,0.30291
1500.0,0.30182
1505.0,0.30037
1510.0,0.29947
1515.0,0.29798
1520.0,0.29663
1525.0,0.29488
1530.0,0.2939
1535.0,0.29226
1540.0,0.29075
1545.0,0.28934
1550.0,0.28764
1555.0,0.28601
1560.0,0.28443
1565.0,0.28256
1570.0,0.28108
1575.0,0.27919
1580.0,0.27757
1585.0,0.2756
1590.0,0.27375
1595.0,0.27193
1600.0,0.27036
1605.0,0.26839
1610.0,0.26643
1615.0,0.26469
1620.0,0.26277
1625.0,0.26086
1630.0,0.25902
1635.0,0.25662
1640.0,0.25498
1645.0,0.25319
1650.0,0.25168
1655.0,0.24983
1660.0,0.24688
1665.0,0.24559
1670.0,0.2434
1675.0,0.24157
1680.0,0.24003
1685.0,0.23819
1690.0,0.23655
1695.0,0.23464
1700.0,0.23459
1705.0,0.23213
1710.0,0.23008
1715.0,0.22839
1720.0,0.22629
1725.0,0.22493
1730.0,0.2235
1735.0,0.22222
1740.0,0.22028
1745.0,0.21824
1750.0,0.2169
1755.0,0.21419
1760.0,0.21283
1765.0,0.21145
1770.0,0.21014
1775.0,0.20874
1780.0,0.20718
1785.0,0.20609
1790.0,0.20486
1795.0,0.20363
1800.0,0.20288
1805.0,0.20155
1810.0,0.20046
1815.0,0.1995
1820.0,0.19853
1825.0,0.19742
1830.0,0.19642
1835.0,0.1954
1840.0,0.19446
1845.0,0.19381
1850.0,0.19302
1855.0,0.19239
1860.0,0.19157
1865.0,0.19121
1870.0,0.19081
1875.0,0.18931
1880.0,0.18885
1885.0,0.18858
1890.0,0.18808
1895.0,0.18778
1900.0,0.18741
1905.0,0.18693
1910.0,0.18653
1915.0,0.18632
1920.0,0.18613
1925.0,0.18614
1930.0,0.1858
1935.0,0.18609
1940.0,0.1863
1945.0,0.18627
1950.0,0.18618
1955.0,0.18617
1960.0,0.18638
1965.0,0.18667
1970.0,0.18681
1975.0,0.18703
1980.0,0.1875
1985.0,0.18779
1990.0,0.18818
1995.0,0.18856
2000.0,0.18908
2005.0,0.18942
2010.0,0.19015
2015.0,0.19061
2020.0,0.19164
2025.0,0.19232
2030.0,0.19308
2035.0,0.19364
2040.0,0.19432
2045.0,0.19497
2050.0,0.19568
2055.0,0.19657
2060.0,0.19746
2065.0,0.19854
2070.0,0.19953
2075.0,0.20046
2080.0,0.20166
2085.0,0.20276
2090.0,0.2041
2095.0,0.20505
2100.0,0.20619
2105.0,0.2075
2110.0,0.20888
2115.0,0.21028
2120.0,0.2116
2125.0,0.21302
2130.0,0.21452
2135.0,0.21588
2140.0,0.2172
2145.0,0.21858
2150.0,0.22
2155.0,0.22166
2160.0,0.22332
2165.0,0.22488
2170.0,0.22649
2175.0,0.2284
2180.0,0.23018
2185.0,0.23211
2190.0,0.23379
2195.0,0.23543
2200.0,0.23732
2205.0,0.23936
2210.0,0.24124
2215.0,0.24321
2220.0,0.24524
2225.0,0.24708
2230.0,0.24898
2235.0,0.25073
2240.0,0.25298
2245.0,0.25463
2250.0,0.25657
2255.0,0.25856
2260.0,0.26051
2265.0,0.26254
2270.0,0.26452
2275.0,0.26668
2280.0,0.2689
2285.0,0.27098
2290.0,0.27281
2295.0,0.27435
2300.0,0.27666
2305.0,0.27848
2310.0,0.28052
2315.0,0.28229
2320.0,0.2843
2325.0,0.28625
2330.0,0.28815
2335.0,0.28999
2340.0,0.29174
2345.0,0.29345
2350.0,0.29492
2355.0,0.29685
2360.0,0.29882
2365.0,0.30076
2370.0,0.30265
2375.0,0.30436
2380.0,0.3061
2385.0,0.30793
2390.0,0.31004
2395.0,0.3125
2400.0,0.31449
2400.2,0.31465
2400.5,0.31451
2400.8,0.31475
2401.1,0.31505
2401.3,0.31498
2401.6,0.31505
2401.9,0.31536
2402.2,0.31557
2402.4,0.31551
2402.7,0.31549
2403.0,0.31549
2403.3,0.31548
2403.6,0.31553
2403.8,0.31578
2404.1,0.31604
2404.4,0.31596
2404.7,0.31593
2405.0,0.31628
2405.2,0.3168
2405.5,0.31633
2405.8,0.31632
2406.1,0.31649
2406.4,0.31655
2406.6,0.31687
2406.9,0.31685
2407.2,0.31696
2407.5,0.31693
2407.7,0.31706
2408.0,0.31728
2408.3,0.31726
2408.6,0.31708
2408.9,0.31754
2409.1,0.31785
2409.4,0.3179
2409.7,0.31759
2410.0,0.31745
2410.3,0.31778
2410.5,0.31789
2410.8,0.31827
2411.1,0.31827
2411.4,0.3182
2411.7,0.31826
2411.9,0.31828
2412.2,0.31818
2412.5,0.31812
2412.8,0.31849
2413.1,0.31866
2413.4,0.319
2413.6,0.31906
2413.9,0.31897
2414.2,0.31914
2414.5,0.31929
2414.8,0.31928
2415.0,0.31926
2415.3,0.31953
2415.6,0.31953
2415.9,0.31972
2416.2,0.32013
2416.4,0.32005
2416.7,0.32004
2417.0,0.32032
2417.3,0.32011
2417.6,0.32012
2417.9,0.32038
2418.1,0.32043
2418.4,0.32055
2418.7,0.32058
2419.0,0.32062
2419.3,0.3207
2419.5,0.32093
2419.8,0.32104
2420.1,0.32091
2420.4,0.32119
2420.7,0.32161
2421.0,0.32123
2421.2,0.32147
2421.5,0.32176
2421.8,0.32183
2422.1,0.32182
2422.4,0.32193
2422.7,0.32205
2422.9,0.32208
2423.2,0.32238
2423.5,0.32242
2423.8,0.3222
2424.1,0.32225
2424.4,0.32231
2424.6,0.32255
2424.9,0.32265
2425.2,0.32231
2425.5,0.32258
2425.8,0.32287
2426.1,0.32284
2426.3,0.32265
2426.6,0.32297
2426.9,0.32327
2427.2,0.32363
2427.5,0.32356
2427.8,0.32337
2428.0,0.3234
2428.3,0.3233
2428.6,0.32328
2428.9,0.32361
2429.2,0.32387
2429.5,0.32402
2429.7,0.32415
2430.0,0.32451
2430.3,0.32455
2430.6,0.32445
2430.9,0.32449
2431.2,0.32449
2431.5,0.3245
2431.7,0.32439
2432.0,0.32454
2432.3,0.32484
2432.6,0.32465
2432.9,0.32467
2433.2,0.32526
2433.5,0.32562
2433.7,0.3255
2434.0,0.3258
2434.3,0.3258
2434.6,0.32558
2434.9,0.32556
2435.2,0.32588
2435.5,0.3262
2435.7,0.32624
2436.0,0.3259
2436.3,0.32579
2436.6,0.3259
2436.9,0.32619
2437.2,0.32618
2437.5,0.32621
2437.7,0.32652
2438.0,0.32657
2438.3,0.3268
2438.6,0.32673
2438.9,0.32651
2439.2,0.32675
2439.5,0.32726
2439.8,0.32757
2440.0,0.32731
2440.3,0.32756
2440.6,0.32742
2440.9,0.32726
2441.2,0.32751
2441.5,0.32783
2441.8,0.32787
2442.1,0.32748
2442.3,0.32761
2442.6,0.3279
2442.9,0.32786
2443.2,0.32776
2443.5,0.32784
2443.8,0.32788
2444.1,0.32806
2444.4,0.32827
2444.6,0.32852
2444.9,0.32853
2445.2,0.32855
2445.5,0.32886
2445.8,0.32894
2446.1,0.3289
2446.4,0.3289
2446.7,0.329
2446.9,0.32908
2447.2,0.329
2447.5,0.32921
2447.8,0.32949
2448.1,0.32952
2448.4,0.3295
2448.7,0.32962
2449.0,0.32984
2449.3,0.33009
2449.5,0.32994
2449.8,0.32988
2450.1,0.32992
2450.4,0.32981
2450.7,0.32996
2451.0,0.33031
2451.3,0.33046
2451.6,0.33073
2451.9,0.33061
2452.2,0.3303
2452.4,0.33047
2452.7,0.33091
2453.0,0.33117
2453.3,0.3309
2453.6,0.33119
2453.9,0.33137
2454.2,0.3312
2454.5,0.33124
2454.8,0.33133
2455.1,0.33113
2455.3,0.33122
2455.6,0.33137
2455.9,0.33137
2456.2,0.33161
2456.5,0.3316
2456.8,0.3317
2457.1,0.33191
2457.4,0.33209
2457.7,0.33201
2458.0,0.33203
2458.3,0.33219
2458.6,0.33237
2458.8,0.33272
2459.1,0.33272
2459.4,0.33253
2459.7,0.33253
2460.0,0.33247
2460.3,0.33243
2460.6,0.33266
2460.9,0.33299
2461.2,0.33301
2461.5,0.33303
2461.8,0.33283
2462.1,0.33304
2462.3,0.33335
2462.6,0.33338
2462.9,0.33352
2463.2,0.33364
2463.5,0.33384
2463.8,0.33387
2464.1,0.33378
2464.4,0.33372
2464.7,0.33365
2465.0,0.33387
2465.3,0.33422
2465.6,0.33408
2465.9,0.33411
2466.2,0.33442
2466.4,0.33451
2466.7,0.33435
2467.0,0.33455
2467.3,0.33479
2467.6,0.33491
2467.9,0.33492
2468.2,0.33482
2468.5,0.33472
2468.8,0.33501
2469.1,0.3353
2469.4,0.33507
2469.7,0.3351
2470.0,0.33536
2470.3,0.33574
2470.6,0.3358
2470.9,0.33555
2471.1,0.33535
2471.4,0.3355
2471.7,0.33552
2472.0,0.33589
2472.3,0.33595
2472.6,0.33596
2472.9,0.33607
2473.2,0.33632
2473.5,0.3362
2473.8,0.33602
2474.1,0.33651
2474.4,0.33673
2474.7,0.33667
2475.0,0.33661
2475.3,0.3367
2475.6,0.33669
2475.9,0.33699
2476.2,0.33716
2476.5,0.33716
2476.8,0.33714
2477.0,0.33738
2477.3,0.33747
2477.6,0.33769
2477.9,0.33763
2478.2,0.33742
2478.5,0.33754
2478.8,0.33747
2479.1,0.33744
2479.4,0.33765
2479.7,0.33795
2480.0,0.33825
2480.3,0.33829
2480.6,0.33831
2480.9,0.33819
2481.2,0.33833
2481.5,0.33846
2481.8,0.33824
2482.1,0.3385
2482.4,0.33872
2482.7,0.33902
2483.0,0.33869
2483.3,0.33859
2483.6,0.33866
2483.9,0.33892
2484.2,0.33905
2484.5,0.33904
2484.8,0.33912
2485.1,0.33959
2485.4,0.33971
2485.7,0.33944
2486.0,0.33937
2486.3,0.33937
2486.6,0.33939
2486.9,0.33982
2487.1,0.3397
2487.4,0.33948
2487.7,0.33986
2488.0,0.3404
2488.3,0.34034
2488.6,0.3402
2488.9,0.34023
2489.2,0.34045
2489.5,0.34034
2489.8,0.34031
2490.1,0.34055
2490.4,0.34067
2490.7,0.34059
2491.0,0.34084
2491.3,0.34102
2491.6,0.34085
2491.9,0.34088
2492.2,0.34103
2492.5,0.34128
2492.8,0.34111
2493.1,0.34092
2493.4,0.34101
2493.7,0.34118
2494.0,0.34142
2494.3,0.3419
2494.6,0.34184
2494.9,0.34153
2495.2,0.34169
2495.5,0.34198
2495.8,0.34208
2496.1,0.34235
2496.4,0.34265
2496.7,0.34251
2497.0,0.34208
2497.3,0.34239
2497.6,0.34257
2497.9,0.34209
2498.2,0.34228
2498.5,0.3426
2498.8,0.34264
2499.1,0.34277
2499.4,0.34276
2499.7,0.34294
2500.0,0.34312
2500.3,0.34327
2500.6,0.34326
2500.9,0.34322
2501.2,0.34299
2501.5,0.34289
2501.9,0.34314
2502.2,0.34353
2502.5,0.34334
2502.8,0.34333
2503.1,0.34343
2503.4,0.34361
2503.7,0.34401
2504.0,0.34423
2504.3,0.34428
2504.6,0.34399
2504.9,0.34402
2505.2,0.34423
2505.5,0.34403
2505.8,0.34407
2506.1,0.34407
2506.4,0.34402
2506.7,0.3444
2507.0,0.34483
2507.3,0.34488
2507.6,0.34479
2507.9,0.34468
2508.2,0.34451
2508.5,0.34457
2508.8,0.34472
2509.1,0.34469
2509.4,0.34482
2509.7,0.34492
2510.0,0.34523
2510.3,0.3455
2510.6,0.34558
2510.9,0.34539
2511.2,0.34525
2511.5,0.34528
2511.8,0.34559
2512.2,0.34559
2512.5,0.34571
2512.8,0.34574
2513.1,0.3456
2513.4,0.34568
2513.7,0.34607
2514.0,0.34632
2514.3,0.34632
2514.6,0.34632
2514.9,0.34649
2515.2,0.34644
2515.5,0.34633
2515.8,0.34649
2516.1,0.34658
2516.4,0.34676
2516.7,0.34671
2517.0,0.34649
2517.3,0.34668
2517.6,0.34698
2517.9,0.34696
2518.3,0.34675
2518.6,0.34666
2518.9,0.34694
2519.2,0.34729
2519.5,0.34738
2519.8,0.34753
2520.1,0.34769
2520.4,0.34739
2520.7,0.34721
2521.0,0.34743
2521.3,0.34744
2521.6,0.3475
2521.9,0.34777
2522.2,0.34783
2522.5,0.348
2522.8,0.34817
2523.2,0.34807
2523.5,0.34816
2523.8,0.34822
2524.1,0.34833
2524.4,0.34841
2524.7,0.34816
2525.0,0.3483
2525.3,0.34824
2525.6,0.34831
2525.9,0.34834
2526.2,0.34841
2526.5,0.34862
2526.8,0.34881
2527.2,0.34892
2527.5,0.34912
2527.8,0.34907
2528.1,0.34882
2528.4,0.3489
2528.7,0.34916
2529.0,0.34931
2529.3,0.34911
2529.6,0.34922
2529.9,0.34941
2530.2,0.34931
2530.5,0.34921
2530.9,0.34952
2531.2,0.34968
2531.5,0.34967
2531.8,0.34981
2532.1,0.35
2532.4,0.35006
2532.7,0.35018
2533.0,0.34999
2533.3,0.34987
2533.6,0.35027
2533.9,0.35026
2534.3,0.35008
2534.6,0.35024
2534.9,0.3506
2535.2,0.35075
2535.5,0.35057
2535.8,0.35064
2536.1,0.35088
2536.4,0.35077
2536.7,0.35086
2537.0,0.35085
2537.4,0.35061
2537.7,0.35088
2538.0,0.35086
2538.3,0.35073
2538.6,0.35093
2538.9,0.35123
2539.2,0.35111
2539.5,0.35107
2539.8,0.35115
2540.2,0.35129
2540.5,0.35134
2540.8,0.35141
2541.1,0.35158
2541.4,0.35159
2541.7,0.35183
2542.0,0.35193
2542.3,0.35196
2542.6,0.352
2543.0,0.35206
2543.3,0.35206
2543.6,0.35185
2543.9,0.35181
2544.2,0.35207
2544.5,0.35206
2544.8,0.35228
2545.1,0.35237
2545.5,0.35222
2545.8,0.35217
2546.1,0.35235
2546.4,0.35248
2546.7,0.35243
2547.0,0.35239
2547.3,0.35245
2547.6,0.35243
2548.0,0.35252
2548.3,0.35305
2548.6,0.35315
2548.9,0.35277
2549.2,0.35263
2549.5,0.35279
2549.8,0.35312
2550.1,0.35322
2550.5,0.35325
2550.8,0.35317
2551.1,0.35308
2551.4,0.35297
2551.7,0.35299
2552.0,0.35333
2552.3,0.35361
2552.7,0.35373
2553.0,0.35386
2553.3,0.35378
2553.6,0.35362
2553.9,0.35349
2554.2,0.35359
2554.5,0.35375
2554.9,0.3537
2555.2,0.35362
2555.5,0.35398
2555.8,0.35424
2556.1,0.35412
2556.4,0.35408
2556.7,0.35413
2557.1,0.35404
2557.4,0.3541
2557.7,0.35408
2558.0,0.35413
2558.3,0.3541
2558.6,0.35409
2559.0,0.35427
2559.3,0.35446
2559.6,0.35462
2559.9,0.35453
2560.2,0.35465
2560.5,0.35479
2560.9,0.35475
2561.2,0.35502
2561.5,0.35505
2561.8,0.3548
2562.1,0.35512
2562.4,0.35499
2562.8,0.35506
2563.1,0.35526
2563.4,0.35529
2563.7,0.35529
2564.0,0.35523
2564.3,0.3556
2564.7,0.35552
2565.0,0.35548
2565.3,0.35534
2565.6,0.35514
2565.9,0.35543
2566.2,0.35552
2566.6,0.35558
2566.9,0.35575
2567.2,0.35567
2567.5,0.35566
2567.8,0.35585
2568.1,0.35581
2568.5,0.35574
2568.8,0.35567
2569.1,0.35584
2569.4,0.35613
2569.7,0.35621
2570.1,0.35598
2570.4,0.35626
2570.7,0.35609
2571.0,0.35614
2571.3,0.3563
2571.6,0.3562
2572.0,0.35602
2572.3,0.35575
2572.6,0.35591
2572.9,0.35637
2573.2,0.35686
2573.6,0.35705
2573.9,0.35713
2574.2,0.35666
2574.5,0.3562
2574.8,0.3566
2575.2,0.3569
2575.5,0.35691
2575.8,0.35698
2576.1,0.357
2576.4,0.35706
2576.8,0.3572
2577.1,0.35731
2577.4,0.35683
2577.7,0.35682
2578.0,0.35704
2578.4,0.35717
2578.7,0.35729
2579.0,0.35717
2579.3,0.35728
2579.6,0.35727
2580.0,0.35741
2580.3,0.35761
2580.6,0.35752
2580.9,0.35775
2581.2,0.35793
2581.6,0.35783
2581.9,0.35775
2582.2,0.3576
2582.5,0.35759
2582.9,0.35773
2583.2,0.35814
2583.5,0.3582
2583.8,0.35836
2584.1,0.35828
2584.5,0.35854
2584.8,0.35802
2585.1,0.35796
2585.4,0.35829
2585.8,0.35839
2586.1,0.35833
2586.4,0.35809
2586.7,0.35822
2587.0,0.35835
2587.4,0.35824
2587.7,0.35873
2588.0,0.35886
2588.3,0.35834
2588.7,0.35837
2589.0,0.35877
2589.3,0.35895
2589.6,0.35873
2590.0,0.35882
2590.3,0.35872
2590.6,0.35866
2590.9,0.35881
2591.2,0.35897
2591.6,0.35905
2591.9,0.35905
2592.2,0.35913
2592.5,0.35904
2592.9,0.35886
2593.2,0.35869
2593.5,0.35827
2593.8,0.35878
2594.2,0.35977
2594.5,0.35989
2594.8,0.35929
2595.1,0.36002
2595.5,0.3599
2595.8,0.35942
2596.1,0.35947
2596.4,0.36011
2596.8,0.36023
2597.1,0.35938
2597.4,0.35933
2597.7,0.35961
2598.1,0.3598
2598.4,0.35966
2598.7,0.35959
2599.0,0.35965
2599.4,0.35989
2599.7,0.35953
2600.0,0.35953
2600.3,0.35968
2600.7,0.35957
2601.0,0.35961
2601.3,0.35993
2601.6,0.35995
2602.0,0.36003
2602.3,0.36018
2602.6,0.36015
2603.0,0.36026
2603.3,0.36025
2603.6,0.35998
2603.9,0.36005
2604.3,0.36005
2604.6,0.35997
2604.9,0.36016
2605.2,0.3604
2605.6,0.36061
2605.9,0.36038
2606.2,0.36098
2606.6,0.36062
2606.9,0.36044
2607.2,0.36072
2607.5,0.36064
2607.9,0.36058
2608.2,0.36076
2608.5,0.36055
2608.8,0.36045
2609.2,0.36079
2609.5,0.36088
2609.8,0.36099
2610.2,0.36095
2610.5,0.36095
2610.8,0.36088
2611.1,0.36086
2611.5,0.36096
2611.8,0.36092
2612.1,0.36089
2612.5,0.36103
2612.8,0.36094
2613.1,0.36095
2613.4,0.36119
2613.8,0.36123
2614.1,0.36095
2614.4,0.36108
2614.8,0.36133
2615.1,0.36125
2615.4,0.36117
2615.8,0.36118
2616.1,0.36113
2616.4,0.36135
2616.7,0.36149
2617.1,0.36182
2617.4,0.36177
2617.7,0.36157
2618.1,0.36157
2618.4,0.36145
2618.7,0.36133
2619.1,0.36136
2619.4,0.36161
2619.7,0.36166
2620.1,0.36194
2620.4,0.36244
2620.7,0.36228
2621.0,0.36223
2621.4,0.36211
2621.7,0.36165
2622.0,0.36157
2622.4,0.36184
2622.7,0.36213
2623.0,0.36228
2623.4,0.36209
2623.7,0.36186
2624.0,0.36209
2624.4,0.3621
2624.7,0.36185
2625.0,0.36177
2625.4,0.36197
2625.7,0.36199
2626.0,0.36194
2626.4,0.36201
2626.7,0.36236
2627.0,0.36262
2627.4,0.36273
2627.7,0.36236
2628.0,0.36193
2628.4,0.36211
2628.7,0.36238
2629.0,0.3624
2629.4,0.36202
2629.7,0.36207
2630.0,0.36255
2630.4,0.36273
2630.7,0.36263
2631.0,0.36302
2631.4,0.36318
2631.7,0.36249
2632.0,0.36264
2632.4,0.36293
2632.7,0.36284
2633.0,0.36259
2633.4,0.36252
2633.7,0.36258
2634.0,0.36242
2634.4,0.36247
2634.7,0.36277
2635.0,0.36266
2635.4,0.36259
2635.7,0.36263
2636.0,0.36273
2636.4,0.36279
2636.7,0.36282
2637.0,0.3628
2637.4,0.36264
2637.7,0.36241
2638.0,0.36239
2638.4,0.3626
2638.7,0.36258
2639.1,0.36265
2639.4,0.36284
2639.7,0.36277
2640.1,0.36281
2640.4,0.36311
2640.7,0.3631
2641.1,0.36299
2641.4,0.36277
2641.7,0.36256
2642.1,0.36282
2642.4,0.36311
2642.8,0.36311
2643.1,0.36319
2643.4,0.36309
2643.8,0.36311
2644.1,0.36298
2644.4,0.36287
2644.8,0.3631
2645.1,0.36316
2645.5,0.36318
2645.8,0.36332
2646.1,0.36341
2646.5,0.36308
2646.8,0.36272
2647.1,0.36284
2647.5,0.36322
2647.8,0.36299
2648.2,0.36291
2648.5,0.36314
2648.8,0.36302
2649.2,0.36298
2649.5,0.36323
2649.8,0.36339
2650.2,0.36331
2650.5,0.36313
2650.9,0.36307
2651.2,0.36321
2651.5,0.36327
2651.9,0.36344
2652.2,0.36334
2652.6,0.36334
2652.9,0.36329
2653.2,0.36313
2653.6,0.36309
2653.9,0.3631
2654.3,0.36309
2654.6,0.3633
2654.9,0.36321
2655.3,0.36309
2655.6,0.36319
2656.0,0.36328
2656.3,0.36328
2656.6,0.36322
2657.0,0.36317
2657.3,0.36299
2657.7,0.36306
2658.0,0.3633
2658.3,0.36334
2658.7,0.3632
2659.0,0.36321
2659.4,0.36319
2659.7,0.36327
2660.0,0.36337
2660.4,0.36316
2660.7,0.36308
2661.1,0.36307
2661.4,0.36314
2661.7,0.36328
2662.1,0.3632
2662.4,0.3631
2662.8,0.36296
2663.1,0.36289
2663.5,0.36297
2663.8,0.36295
2664.1,0.36288
2664.5,0.36292
2664.8,0.36343
2665.2,0.36371
2665.5,0.36333
2665.9,0.36291
2666.2,0.36229
2666.5,0.36263
2666.9,0.36347
2667.2,0.36345
2667.6,0.36327
2667.9,0.3633
2668.3,0.36257
2668.6,0.36236
2668.9,0.36221
2669.3,0.36208
2669.6,0.36201
2670.0,0.36218
2670.3,0.36269
2670.7,0.36312
2671.0,0.36288
2671.3,0.36215
2671.7,0.36157
2672.0,0.36167
2672.4,0.36154
2672.7,0.36144
2673.1,0.3613
2673.4,0.361
2673.8,0.36081
2674.1,0.3608
2674.4,0.36084
2674.8,0.36076
2675.1,0.36041
2675.5,0.36032
2675.8,0.36066
2676.2,0.36078
2676.5,0.36057
2676.9,0.36072
2677.2,0.36041
2677.6,0.36008
2677.9,0.36004
2678.2,0.35996
2678.6,0.35953
2678.9,0.35957
2679.3,0.35977
2679.6,0.3596
2680.0,0.35945
2680.3,0.35925
2680.7,0.35879
2681.0,0.35878
2681.4,0.35891
2681.7,0.35871
2682.1,0.35814
2682.4,0.35796
2682.7,0.35799
2683.1,0.35804
2683.4,0.35771
2683.8,0.35752
2684.1,0.35749
2684.5,0.35708
2684.8,0.35668
2685.2,0.35655
2685.5,0.35647
2685.9,0.35622
2686.2,0.35601
2686.6,0.35608
2686.9,0.35594
2687.3,0.3558
2687.6,0.35539
2688.0,0.35499
2688.3,0.35484
2688.7,0.35463
