Wavelength (µm)	Augite ws592 spliced
0.301100	0.045344
0.305100	0.047974
0.309100	0.049266
0.313100	0.054325
0.317100	0.058099
0.321100	0.062474
0.325100	0.068898
0.329100	0.072329
0.333100	0.076753
0.337100	0.081827
0.341100	0.085483
0.345100	0.090081
0.349100	0.095055
0.353100	0.100909
0.357100	0.106824
0.360600	0.110864
0.363600	0.117003
0.366600	0.121547
0.369600	0.124597
0.372600	0.129644
0.375600	0.132322
0.378600	0.138221
0.381100	0.140512
0.383100	0.143531
0.385100	0.145015
0.387100	0.149176
0.389100	0.151659
0.391100	0.153158
0.393100	0.157966
0.395100	0.159176
0.397100	0.162667
0.399100	0.163785
0.401100	0.166948
0.403100	0.168349
0.405100	0.168709
0.407100	0.172540
0.409100	0.173716
0.411100	0.176884
0.412800	0.177089
0.415800	0.180226
0.418800	0.184615
0.421800	0.183561
0.424800	0.190318
0.427800	0.191427
0.430800	0.193831
0.433800	0.197276
0.436800	0.200065
0.439800	0.202034
0.442800	0.202825
0.445800	0.208910
0.448800	0.209787
0.451300	0.211960
0.453300	0.211872
0.455300	0.214427
0.457300	0.216344
0.459300	0.216792
0.461300	0.215060
0.463300	0.220289
0.465300	0.222859
0.467300	0.223882
0.469300	0.222772
0.471300	0.227273
0.473300	0.228328
0.475300	0.231038
0.477300	0.229720
0.479300	0.232470
0.481300	0.235417
0.483300	0.239724
0.485300	0.240843
0.487300	0.241780
0.489300	0.241819
0.491300	0.247792
0.493300	0.249115
0.495300	0.252438
0.497300	0.255810
0.499300	0.256839
0.501300	0.257050
0.503300	0.261311
0.505300	0.264440
0.507300	0.267013
0.509300	0.269426
0.511300	0.271140
0.513300	0.276358
0.515300	0.278234
0.517300	0.284011
0.519300	0.282745
0.521300	0.287643
0.523300	0.289506
0.525300	0.293541
0.527300	0.293731
0.529300	0.298782
0.531300	0.298164
0.533300	0.300794
0.535300	0.301979
0.537300	0.301786
0.539300	0.306166
0.541300	0.306226
0.543300	0.308834
0.545300	0.308181
0.547300	0.311339
0.549300	0.312398
0.551300	0.312344
0.553300	0.314145
0.555300	0.315838
0.557300	0.316209
0.559300	0.317829
0.561300	0.316716
0.563300	0.319832
0.565300	0.319435
0.567300	0.319705
0.569300	0.316734
0.571300	0.317828
0.573300	0.318697
0.575300	0.318088
0.577300	0.317891
0.579300	0.319108
0.581300	0.318378
0.583300	0.318094
0.585300	0.317291
0.587300	0.317210
0.589300	0.314933
0.591300	0.318045
0.593300	0.312463
0.595300	0.315078
0.597300	0.314272
0.599300	0.313964
0.601100	0.311026
0.602700	0.312741
0.604300	0.311936
0.605900	0.311901
0.607500	0.310492
0.609100	0.310882
0.610700	0.311576
0.612300	0.309167
0.613900	0.310254
0.615500	0.309231
0.617100	0.307541
0.618700	0.305963
0.620300	0.305478
0.621900	0.305230
0.623500	0.306216
0.625100	0.305162
0.626700	0.304835
0.628300	0.306960
0.629900	0.305570
0.631700	0.304047
0.633700	0.304422
0.635700	0.304298
0.637700	0.304267
0.639700	0.303402
0.641700	0.305965
0.643700	0.307613
0.645700	0.306535
0.647700	0.304953
0.649700	0.304906
0.651700	0.305381
0.653700	0.305566
0.655700	0.305122
0.657700	0.305534
0.659700	0.306764
0.661700	0.309180
0.663700	0.308118
0.665700	0.307099
0.667700	0.309878
0.670200	0.309807
0.673200	0.313442
0.676200	0.312065
0.679200	0.313727
0.682200	0.318601
0.685200	0.316935
0.688200	0.316817
0.691200	0.317473
0.694200	0.319430
0.697200	0.320477
0.700200	0.323166
0.702000	0.322715
0.704000	0.324259
0.706000	0.325823
0.708000	0.327294
0.710000	0.328334
0.712000	0.330864
0.714000	0.330654
0.716000	0.331674
0.718000	0.334067
0.720000	0.334933
0.722000	0.335565
0.724000	0.337134
0.726000	0.339006
0.728000	0.340686
0.730000	0.339565
0.732000	0.342911
0.734000	0.343455
0.736000	0.343783
0.738000	0.345292
0.740000	0.344350
0.742000	0.349551
0.744000	0.348105
0.746000	0.349685
0.748000	0.350797
0.750500	0.351392
0.753500	0.353369
0.756500	0.355620
0.759500	0.355537
0.762500	0.357535
0.765500	0.357589
0.768500	0.359202
0.771500	0.359626
0.774500	0.361499
0.777500	0.362830
0.781000	0.364041
0.785000	0.366550
0.789000	0.368136
0.793000	0.368922
0.797000	0.369904
0.801500	0.373630
0.806500	0.373120
0.811500	0.374480
0.816500	0.376794
0.822000	0.379163
0.828000	0.379566
0.835000	0.379617
0.843000	0.380363
0.851000	0.377365
0.859000	0.370298
0.871000	0.366689
0.883000	0.353368
0.894000	0.342254
0.904000	0.328396
0.914000	0.323247
0.924000	0.309228
0.933000	0.302725
0.941000	0.289307
0.949000	0.279171
0.957000	0.271928
0.964000	0.265323
0.970000	0.259981
0.976000	0.256649
0.982000	0.252348
0.988000	0.249680
0.994000	0.248187
1.000000	0.242020
1.006000	0.242471
1.012000	0.239114
1.018000	0.240097
1.023500	0.239855
1.028500	0.236998
1.033500	0.241641
1.038500	0.242228
1.043500	0.244289
1.048500	0.247132
1.053500	0.249736
1.058500	0.252345
1.063500	0.256958
1.068500	0.260555
1.073500	0.263763
1.078500	0.267575
1.083500	0.273104
1.088500	0.279770
1.093500	0.284820
1.098500	0.285029
1.103500	0.293785
1.108500	0.300125
1.113500	0.305556
1.118500	0.313480
1.123500	0.319884
1.128500	0.324634
1.133500	0.330601
1.138500	0.336122
1.143500	0.339521
1.148500	0.342924
1.153500	0.351232
1.158500	0.356164
1.163500	0.361454
1.168500	0.365777
1.173500	0.370223
1.178500	0.375329
1.183500	0.377222
1.188500	0.382798
1.193500	0.383997
1.198500	0.384599
1.203500	0.391056
1.208500	0.394216
1.213500	0.400370
1.218500	0.400033
1.223500	0.402788
1.228500	0.405361
1.233500	0.409469
1.238500	0.411849
1.243500	0.414276
1.248500	0.415838
1.253500	0.420889
1.258500	0.424064
1.263500	0.424998
1.268500	0.425247
1.273500	0.430534
1.278500	0.432497
1.283500	0.435141
1.288500	0.437642
1.293500	0.438444
1.298500	0.442102
1.303500	0.443538
1.308500	0.447379
1.313500	0.451669
1.318500	0.453508
1.323500	0.453193
1.328500	0.456625
1.333500	0.456245
1.338500	0.459959
1.343500	0.461681
1.348500	0.466190
1.353500	0.463562
1.358500	0.467019
1.363500	0.470746
1.368500	0.473714
1.373500	0.477356
1.378500	0.474172
1.383500	0.476435
1.388500	0.475841
1.393500	0.478694
1.398500	0.485312
1.403500	0.484968
1.408500	0.481620
1.413500	0.487330
1.418500	0.488410
1.423500	0.494088
1.428500	0.495768
1.433500	0.495289
1.438500	0.498482
1.443500	0.501108
1.448500	0.505594
1.453500	0.505374
1.458500	0.507541
1.463500	0.512366
1.468500	0.511614
1.473500	0.515070
1.478500	0.514792
1.483500	0.519637
1.488500	0.520257
1.493500	0.522871
1.498500	0.527894
1.503500	0.525795
1.508500	0.525591
1.513500	0.528920
1.518500	0.530397
1.523500	0.532374
1.528500	0.532093
1.534000	0.535013
1.540000	0.539179
1.546000	0.541510
1.552000	0.542052
1.558000	0.544132
1.564000	0.545796
1.570500	0.545860
1.577500	0.546206
1.584500	0.547210
1.591500	0.550318
1.598500	0.551399
1.605500	0.551822
1.612500	0.553690
1.619500	0.554896
1.626500	0.554743
1.633500	0.552095
1.640500	0.555525
1.647500	0.555198
1.654500	0.553602
1.661500	0.556407
1.668500	0.556146
1.676000	0.554885
1.684000	0.556100
1.692000	0.554668
1.700000	0.551434
1.708000	0.557762
1.716000	0.554575
1.724000	0.554471
1.732000	0.552681
1.740000	0.550891
1.748000	0.550344
1.756000	0.547160
1.764000	0.543626
1.772000	0.546538
1.780000	0.542208
1.788000	0.535237
1.796000	0.538774
1.800053	0.533536
1.800679	0.533391
1.801304	0.533149
1.801931	0.533004
1.802557	0.533053
1.803184	0.533004
1.803812	0.532859
1.804439	0.532617
1.805068	0.532714
1.805696	0.532423
1.806326	0.532182
1.806955	0.532133
1.807585	0.531940
1.808216	0.531698
1.808847	0.531456
1.809478	0.531359
1.810110	0.531117
1.810742	0.530923
1.811375	0.530972
1.812008	0.530585
1.812641	0.530343
1.813275	0.530294
1.813910	0.530246
1.814545	0.530198
1.815180	0.529810
1.815816	0.529714
1.816452	0.529762
1.817089	0.529810
1.817726	0.529520
1.818363	0.529472
1.819001	0.529375
1.819640	0.528697
1.820279	0.527778
1.820918	0.527972
1.821558	0.527923
1.822199	0.528117
1.822839	0.528456
1.823480	0.528794
1.824122	0.528649
1.824764	0.528504
1.825406	0.527439
1.826049	0.526230
1.826693	0.526955
1.827337	0.527585
1.827981	0.527101
1.828626	0.526762
1.829271	0.526665
1.829917	0.526423
1.830563	0.525504
1.831210	0.525504
1.831857	0.526230
1.832504	0.526084
1.833152	0.526181
1.833801	0.525988
1.834450	0.525213
1.835099	0.524681
1.835749	0.524004
1.836399	0.523859
1.837050	0.523810
1.837701	0.523375
1.838353	0.524391
1.839005	0.524052
1.839658	0.522939
1.840311	0.523568
1.840964	0.523278
1.841618	0.521729
1.842272	0.522504
1.842927	0.523713
1.843583	0.523762
1.844238	0.523762
1.844895	0.523713
1.845551	0.523423
1.846209	0.521778
1.846867	0.520133
1.847525	0.520423
1.848184	0.520859
1.848843	0.521778
1.849502	0.522262
1.850162	0.522165
1.850823	0.521971
1.851484	0.521875
1.852145	0.521246
1.852807	0.520278
1.853469	0.519068
1.854132	0.519455
1.854796	0.520810
1.855459	0.520955
1.856124	0.519455
1.856789	0.519068
1.857454	0.519988
1.858120	0.520278
1.858786	0.519165
1.859453	0.517181
1.860120	0.517423
1.860788	0.518487
1.861456	0.519068
1.862124	0.518923
1.862794	0.518536
1.863463	0.517907
1.864133	0.517568
1.864804	0.517665
1.865475	0.517858
1.866146	0.517568
1.866818	0.516310
1.867491	0.514520
1.868164	0.514907
1.868837	0.515584
1.869511	0.515100
1.870185	0.513552
1.870860	0.512342
1.871536	0.513939
1.872212	0.513552
1.872888	0.511616
1.873565	0.512294
1.874242	0.513310
1.874920	0.512971
1.875599	0.512923
1.876277	0.512245
1.876957	0.511471
1.877637	0.512100
1.878317	0.512390
1.878998	0.512052
1.879679	0.511616
1.880361	0.511181
1.881043	0.510890
1.881726	0.510890
1.882409	0.510503
1.883093	0.509681
1.883777	0.508519
1.884462	0.508568
1.885147	0.508616
1.885833	0.508132
1.886519	0.507648
1.887206	0.507551
1.887893	0.507164
1.888581	0.506632
1.889269	0.505616
1.889958	0.504406
1.890647	0.504503
1.891337	0.504309
1.892027	0.503777
1.892718	0.503535
1.893409	0.502858
1.894101	0.502713
1.894793	0.502519
1.895486	0.501938
1.896179	0.501164
1.896873	0.500438
1.897568	0.499616
1.898262	0.498987
1.898958	0.497487
1.899654	0.496567
1.900350	0.497003
1.901047	0.497632
1.901744	0.497390
1.902442	0.495890
1.903140	0.495696
1.903839	0.496229
1.904539	0.495067
1.905239	0.493857
1.905939	0.494051
1.906640	0.494003
1.907342	0.494583
1.908044	0.494922
1.908746	0.494874
1.909449	0.494486
1.910153	0.493954
1.910857	0.493470
1.911561	0.493277
1.912266	0.493422
1.912972	0.492406
1.913678	0.491970
1.914385	0.492793
1.915092	0.493325
1.915800	0.493083
1.916508	0.492841
1.917217	0.492986
1.917926	0.493083
1.918636	0.492793
1.919346	0.491777
1.920057	0.490664
1.920768	0.490761
1.921480	0.491922
1.922193	0.492115
1.922906	0.492067
1.923620	0.491438
1.924333	0.491535
1.925048	0.491922
1.925763	0.491874
1.926479	0.491390
1.927195	0.491244
1.927912	0.490954
1.928629	0.490567
1.929346	0.490857
1.930065	0.490809
1.930784	0.490712
1.931503	0.490470
1.932223	0.490228
1.932943	0.490083
1.933664	0.489890
1.934386	0.490035
1.935108	0.489986
1.935830	0.489357
1.936554	0.489115
1.937277	0.489164
1.938002	0.488922
1.938726	0.488535
1.939452	0.488535
1.940177	0.488728
1.940904	0.488535
1.941631	0.488293
1.942358	0.488196
1.943086	0.488002
1.943815	0.487906
1.944544	0.487857
1.945274	0.487809
1.946004	0.487760
1.946735	0.487422
1.947466	0.486889
1.948198	0.486793
1.948930	0.486889
1.949663	0.486357
1.950397	0.486067
1.951131	0.486164
1.951865	0.486018
1.952601	0.485535
1.953336	0.485293
1.954073	0.485147
1.954809	0.484857
1.955547	0.484615
1.956285	0.484325
1.957023	0.484131
1.957762	0.483889
1.958502	0.483647
1.959242	0.483599
1.959983	0.483405
1.960724	0.483164
1.961466	0.482825
1.962208	0.482389
1.962951	0.482196
1.963695	0.482099
1.964439	0.481954
1.965183	0.481615
1.965929	0.481373
1.966674	0.481083
1.967421	0.480696
1.968168	0.480309
1.968915	0.480018
1.969663	0.479825
1.970412	0.479728
1.971161	0.479438
1.971911	0.479099
1.972661	0.478954
1.973413	0.478809
1.974164	0.478518
1.974916	0.478228
1.975669	0.477938
1.976422	0.477502
1.977176	0.477163
1.977930	0.476921
1.978685	0.476728
1.979440	0.476776
1.980196	0.476825
1.980953	0.476486
1.981710	0.476196
1.982468	0.476002
1.983226	0.475518
1.983986	0.475373
1.984745	0.475179
1.985505	0.474841
1.986266	0.474260
1.987027	0.474115
1.987789	0.474018
1.988552	0.473873
1.989315	0.473679
1.990078	0.473292
1.990842	0.472953
1.991607	0.472760
1.992373	0.472421
1.993139	0.472228
1.993905	0.472179
1.994673	0.471841
1.995440	0.471550
1.996209	0.471308
1.996978	0.471018
1.997747	0.470921
1.998517	0.470873
1.999288	0.470534
2.000059	0.470098
2.000831	0.469905
2.001604	0.469615
2.002377	0.469227
2.003151	0.469082
2.003925	0.468986
2.004700	0.468647
2.005476	0.468453
2.006252	0.468260
2.007029	0.467921
2.007806	0.467776
2.008584	0.467921
2.009362	0.467727
2.010141	0.467340
2.010921	0.467050
2.011701	0.466856
2.012482	0.466663
2.013264	0.466324
2.014046	0.466082
2.014829	0.465840
2.015612	0.465889
2.016396	0.465695
2.017180	0.465405
2.017966	0.465163
2.018752	0.465066
2.019538	0.464872
2.020325	0.464582
2.021113	0.464340
2.021901	0.463905
2.022690	0.463711
2.023479	0.463566
2.024270	0.463518
2.025060	0.463227
2.025852	0.462889
2.026644	0.462695
2.027436	0.462501
2.028229	0.462211
2.029023	0.462066
2.029818	0.461776
2.030613	0.461340
2.031409	0.461001
2.032204	0.461001
2.033001	0.460808
2.033799	0.460614
2.034597	0.460421
2.035396	0.460130
2.036195	0.459840
2.036996	0.459695
2.037796	0.459405
2.038598	0.459163
2.039400	0.459114
2.040203	0.458872
2.041006	0.458388
2.041810	0.458098
2.042614	0.457904
2.043419	0.457566
2.044225	0.457469
2.045032	0.457324
2.045839	0.456888
2.046646	0.456598
2.047455	0.456453
2.048264	0.456114
2.049073	0.455872
2.049883	0.455630
2.050694	0.455437
2.051505	0.455291
2.052317	0.454856
2.053130	0.454421
2.053944	0.454275
2.054758	0.454179
2.055573	0.453791
2.056388	0.453404
2.057204	0.453211
2.058021	0.453017
2.058838	0.452775
2.059656	0.452291
2.060475	0.451904
2.061294	0.451566
2.062114	0.451324
2.062935	0.451130
2.063756	0.450743
2.064577	0.450404
2.065400	0.450162
2.066223	0.449775
2.067047	0.449582
2.067871	0.449291
2.068696	0.448952
2.069522	0.448614
2.070349	0.448275
2.071176	0.448033
2.072004	0.447791
2.072833	0.447404
2.073662	0.447065
2.074492	0.446920
2.075322	0.446485
2.076153	0.446243
2.076985	0.446001
2.077817	0.445614
2.078650	0.445275
2.079484	0.444936
2.080319	0.444598
2.081154	0.444501
2.081990	0.444210
2.082826	0.443968
2.083663	0.443630
2.084501	0.443291
2.085340	0.442904
2.086179	0.442517
2.087018	0.442130
2.087859	0.441743
2.088700	0.441452
2.089542	0.441259
2.090385	0.441017
2.091228	0.440823
2.092072	0.440678
2.092917	0.440388
2.093762	0.440001
2.094608	0.439710
2.095454	0.439323
2.096302	0.439130
2.097150	0.438742
2.097999	0.438259
2.098848	0.438017
2.099698	0.438065
2.100549	0.437726
2.101400	0.437339
2.102252	0.437049
2.103105	0.436904
2.103959	0.436710
2.104813	0.436226
2.105668	0.435839
2.106524	0.435839
2.107380	0.435646
2.108237	0.435355
2.109094	0.435065
2.109953	0.434823
2.110812	0.435588
2.111672	0.435731
2.112532	0.434823
2.113394	0.433915
2.114255	0.433485
2.115118	0.432768
2.115981	0.432242
2.116845	0.432195
2.117710	0.432147
2.118576	0.431860
2.119442	0.431526
2.120309	0.431000
2.121176	0.430379
2.122045	0.430379
2.122913	0.430426
2.123783	0.429996
2.124654	0.429423
2.125525	0.428945
2.126396	0.428802
2.127269	0.428467
2.128142	0.427942
2.129016	0.427607
2.129891	0.427559
2.130766	0.427464
2.131642	0.426842
2.132519	0.425887
2.133397	0.425648
2.134275	0.425934
2.135154	0.425457
2.136034	0.424931
2.136914	0.424166
2.137795	0.423736
2.138677	0.423927
2.139560	0.424071
2.140444	0.423736
2.141328	0.423067
2.142213	0.422207
2.143099	0.421729
2.143985	0.421777
2.144872	0.421586
2.145760	0.421538
2.146648	0.421442
2.147537	0.421012
2.148427	0.421012
2.149318	0.420964
2.150209	0.420295
2.151101	0.419674
2.151994	0.419770
2.152888	0.419579
2.153783	0.418910
2.154678	0.418575
2.155574	0.418718
2.156470	0.418241
2.157368	0.417715
2.158266	0.417428
2.159165	0.417189
2.160064	0.416902
2.160964	0.416186
2.161865	0.415708
2.162767	0.416042
2.163670	0.416233
2.164573	0.416042
2.165478	0.415517
2.166383	0.415087
2.167288	0.415230
2.168195	0.414752
2.169102	0.414035
2.170010	0.413366
2.170919	0.413414
2.171828	0.413414
2.172739	0.412602
2.173650	0.412267
2.174561	0.412315
2.175474	0.412219
2.176387	0.411741
2.177301	0.411359
2.178216	0.411263
2.179132	0.411025
2.180048	0.410881
2.180965	0.410499
2.181883	0.409734
2.182801	0.409639
2.183721	0.409495
2.184641	0.409065
2.185562	0.408779
2.186484	0.408635
2.187407	0.408492
2.188330	0.408110
2.189254	0.407871
2.190179	0.407775
2.191105	0.407488
2.192032	0.407154
2.192959	0.406771
2.193887	0.406294
2.194816	0.405672
2.195745	0.405481
2.196676	0.405481
2.197607	0.405099
2.198539	0.405386
2.199472	0.405386
2.200405	0.404908
2.201339	0.404382
2.202275	0.403952
2.203211	0.403809
2.204147	0.403761
2.205085	0.403522
2.206023	0.403235
2.206962	0.403092
2.207902	0.402805
2.208843	0.402232
2.209784	0.401993
2.210727	0.401849
2.211670	0.401563
2.212614	0.401276
2.213559	0.401180
2.214504	0.400702
2.215451	0.400416
2.216398	0.400511
2.217346	0.400272
2.218295	0.399794
2.219244	0.399508
2.220195	0.399173
2.221146	0.398647
2.222098	0.398552
2.223051	0.398456
2.224005	0.397931
2.224959	0.397453
2.225914	0.396736
2.226871	0.396832
2.227827	0.396975
2.228785	0.396879
2.229744	0.396736
2.230703	0.396545
2.231663	0.395876
2.232625	0.395398
2.233587	0.394872
2.234549	0.394347
2.235513	0.393916
2.236477	0.393678
2.237442	0.393773
2.238408	0.393534
2.239375	0.393200
2.240343	0.392817
2.241312	0.392674
2.242281	0.392722
2.243252	0.392339
2.244223	0.391670
2.245195	0.391432
2.246168	0.391288
2.247141	0.390954
2.248116	0.390858
2.249091	0.390715
2.250067	0.390380
2.251044	0.390380
2.252022	0.390046
2.253000	0.389950
2.253980	0.389854
2.254961	0.389233
2.255942	0.389042
2.256924	0.388803
2.257907	0.388469
2.258891	0.388325
2.259876	0.387991
2.260861	0.387608
2.261847	0.387465
2.262835	0.387083
2.263823	0.386987
2.264812	0.387178
2.265802	0.386748
2.266792	0.386175
2.267784	0.385745
2.268776	0.385506
2.269770	0.385267
2.270764	0.385171
2.271759	0.385123
2.272755	0.384550
2.273752	0.384072
2.274750	0.383929
2.275748	0.383547
2.276747	0.383642
2.277748	0.383738
2.278749	0.383308
2.279751	0.382973
2.280754	0.382447
2.281758	0.382113
2.282763	0.381683
2.283768	0.381444
2.284775	0.381061
2.285782	0.380966
2.286791	0.380870
2.287800	0.380679
2.288810	0.380536
2.289821	0.380392
2.290832	0.380058
2.291845	0.379867
2.292859	0.379389
2.293873	0.379007
2.294889	0.379007
2.295905	0.378672
2.296922	0.378529
2.297940	0.378720
2.298960	0.378624
2.299979	0.378672
2.301001	0.378099
2.302022	0.377812
2.303045	0.377812
2.304068	0.377621
2.305093	0.377191
2.306118	0.376761
2.307145	0.376617
2.308172	0.376808
2.309201	0.376808
2.310230	0.376856
2.311260	0.376522
2.312290	0.376139
2.313322	0.375900
2.314355	0.375853
2.315388	0.375661
2.316423	0.375853
2.317458	0.375948
2.318495	0.375853
2.319532	0.375566
2.320570	0.375231
2.321609	0.375040
2.322650	0.375279
2.323691	0.375423
2.324733	0.375423
2.325776	0.375661
2.326820	0.375853
2.327865	0.375757
2.328910	0.375566
2.329957	0.375279
2.331005	0.375279
2.332053	0.375184
2.333103	0.375327
2.334153	0.375948
2.335205	0.376044
2.336257	0.375757
2.337310	0.375709
2.338365	0.375614
2.339420	0.375470
2.340476	0.375996
2.341533	0.376187
2.342591	0.375996
2.343650	0.376330
2.344710	0.376187
2.345771	0.376235
2.346833	0.376426
2.347896	0.376474
2.348960	0.376761
2.350024	0.376713
2.351090	0.376474
2.352157	0.376235
2.353225	0.376330
2.354293	0.376904
2.355363	0.376952
2.356434	0.376713
2.357505	0.376665
2.358577	0.376856
2.359651	0.377000
2.360726	0.376665
2.361801	0.377000
2.362878	0.377095
2.363955	0.377095
2.365033	0.377000
2.366114	0.376808
2.367194	0.377143
2.368275	0.377095
2.369358	0.376761
2.370441	0.376808
2.371525	0.376856
2.372611	0.376856
2.373697	0.376713
2.374785	0.376713
2.375873	0.377047
2.376962	0.377000
2.378052	0.377334
2.379144	0.377334
2.380236	0.377047
2.381330	0.377047
2.382424	0.376904
2.383519	0.376713
2.384615	0.376904
2.385713	0.376856
2.386811	0.376522
2.387911	0.376426
2.389011	0.377000
2.390113	0.377286
2.391215	0.377286
2.392318	0.377573
2.393423	0.377430
2.394528	0.377047
2.395635	0.377191
2.396743	0.377573
2.397851	0.377669
2.398961	0.377812
2.400071	0.378290
2.401183	0.378290
2.402296	0.377908
2.403410	0.378146
2.404524	0.378768
2.405640	0.378768
