Wavelength (µm) raw,SynOl_Fo30 raw,Wavelength (µm) bin avg,SynOl_Fo30 bin avg,Wavelength (µm) cubic spline of bin avg,SynOl_Fo30 cubic spline of bin avg
0.3,0.03837,0.44602,0.090545,0.44602,0.090545
0.305,0.04021,0.456,0.09579,0.45600098039215686,0.09579063176268315
0.31,0.03797,0.46598,0.10301,0.46598196078431375,0.10301153455699835
0.315,0.03924,0.47596,0.11115,0.47596294117647064,0.1111524776084583
0.32,0.03971,0.48595,0.11915,0.4859439215686275,0.1191457618941853
0.325,0.04058,0.49593,0.125625,0.4959249019607843,0.12562134159798716
0.33,0.04219,0.50591,0.13356,0.5059058823529412,0.13355685507932055
0.335,0.04226,0.51589,0.140175,0.5158868627450981,0.14017311383448694
0.34,0.04339,0.52587,0.14628,0.525867843137255,0.1462785870623724
0.345,0.04473,0.53585,0.153585,0.5358488235294118,0.1535840477391424
0.35,0.0463,0.54583,0.16194999999999998,0.5458298039215687,0.16194983968769738
0.355,0.04805,0.55581,0.16977,0.5558107843137255,0.169770616029033
0.36,0.0501,0.56579,0.17763,0.5657917647058823,0.1776313307418836
0.365,0.05187,0.57577,0.18451,0.5757727450980392,0.18451172670822513
0.37,0.05408,0.58576,0.19029000000000001,0.5857537254901961,0.190286651097408
0.375,0.05616,0.59574,0.19515500000000002,0.595734705882353,0.1951527007860626
0.38,0.05846,0.60572,0.19918000000000002,0.6057156862745099,0.19917826773734124
0.385,0.06044,0.6157,0.20335,0.6156966666666667,0.2033485905418507
0.39,0.06256,0.62568,0.20754,0.6256776470588236,0.2075390115248723
0.395,0.06504,0.63566,0.21184999999999998,0.6356586274509805,0.21184937980007942
0.4,0.06674,0.64564,0.21650000000000003,0.6456396078431372,0.21649981732185408
0.405,0.06811,0.65562,0.22103499999999998,0.6556205882352941,0.22103526226060988
0.41,0.07035,0.6656,0.22543000000000002,0.665601568627451,0.22543068261294422
0.415,0.073,0.67558,0.22971,0.6755825490196079,0.2297110736563136
0.42,0.07596,0.68556,0.23391,0.6855635294117648,0.23391151451974368
0.425,0.07916,0.69555,0.238205,0.6955445098039216,0.23820272333978224
0.43,0.08238,0.70553,0.24206,0.7055254901960785,0.24205837269325725
0.435,0.08521,0.71551,0.24603,0.7155064705882352,0.24602825583719634
0.44,0.08778,0.72549,0.251415,0.7254874509803921,0.25141379073652587
0.445,0.08971,0.73547,0.25506,0.735468431372549,0.2550594937151716
0.45,0.09138,0.74545,0.2584,0.7454494117647059,0.2583998033528475
0.455,0.09423,0.75543,0.26155,0.7554303921568628,0.2615501140951229
0.46,0.09735,0.76541,0.2641,0.7654113725490197,0.26410029557319803
0.465,0.10126,0.77539,0.26587,0.7753923529411766,0.2658703440900568
0.47,0.10476,0.78537,0.26724000000000003,0.7853733333333334,0.2672404785555593
0.475,0.10891,0.79536,0.268505,0.7953543137254901,0.26850459483306616
0.48,0.11339,0.80534,0.2683,0.805335294117647,0.2683005183800491
0.485,0.11739,0.81532,0.26681,0.8153162745098039,0.2668105213915068
0.49,0.12091,0.8253,0.26566,0.8252972549019608,0.2656603394456316
0.495,0.12389,0.83528,0.264165,0.8352782352941177,0.2641652832240673
0.5,0.12736,0.84526,0.26219499999999996,0.8452592156862746,0.26219521642031063
0.505,0.13168,0.85524,0.25905999999999996,0.8552401960784315,0.25905994700147095
0.51,0.13544,0.86522,0.25683999999999996,0.8652211764705883,0.25683970281533736
0.515,0.13857,0.8752,0.25390500000000005,0.875202156862745,0.253904420003376
0.52,0.14178,0.88518,0.251745,0.8851831372549019,0.2517443622975269
0.525,0.14478,0.89517,0.24942,0.8951641176470588,0.24942156167185875
0.53,0.14778,0.90515,0.246565,0.9051450980392157,0.24656642732630762
0.535,0.15156,0.91513,0.243855,0.9151260784313726,0.24385595167574892
0.54,0.15561,0.92511,0.241455,0.9251070588235295,0.24145580656703738
0.545,0.15977,0.93509,0.23836000000000002,0.9350880392156864,0.23836061202779968
0.55,0.16413,0.94507,0.23568,0.9450690196078432,0.235680209032852
0.555,0.16757,0.95505,0.23379,0.95505,0.23379
0.56,0.17197,0.96503,0.230965,0.9650309803921568,0.23096463826494001
0.565,0.17577,0.97501,0.22694999999999999,0.9750119607843137,0.22694927164521553
0.57,0.17949,0.98499,0.22396,0.9849929411764706,0.22395926227861004
0.575,0.18298,0.99497,0.22129,0.9949739215686275,0.22128871909126244
0.58,0.18604,1.00496,0.217545,1.0049549019607844,0.21754688605792816
0.585,0.18895,1.01494,0.21406999999999998,1.0149358823529413,0.2140714940110651
0.59,0.19163,1.02492,0.210555,1.0249168627450982,0.21055587814098822
0.595,0.19406,1.0349,0.20848,1.0348978431372549,0.2084804271362019
0.6,0.19625,1.04488,0.206465,1.0448788235294117,0.20646518519520451
0.605,0.19817,1.05486,0.20548,1.0548598039215686,0.20548001453653883
0.61,0.20019,1.06484,0.20474,1.0648407843137255,0.2047399493455327
0.615,0.2023,1.07482,0.20449,1.0748217647058824,0.2044900615870887
0.62,0.2044,1.0848,0.205535,1.0848027450980393,0.20553545029695333
0.625,0.20648,1.09478,0.20760499999999998,1.0947837254901962,0.20760591425936573
0.63,0.2086,1.10477,0.21032499999999998,1.104764705882353,0.2103234466002681
0.635,0.21066,1.11475,0.21365,1.1147456862745098,0.21364828664757637
0.64,0.21304,1.12473,0.217935,1.1247266666666667,0.21793364907968443
0.645,0.21535,1.13471,0.22192499999999998,1.1347076470588235,0.22192389595428527
0.65,0.21765,1.14469,0.22699,1.1446886274509804,0.22698939648373526
0.655,0.21997,1.15467,0.230735,1.1546696078431373,0.23073483517101714
0.66,0.2221,1.16465,0.23545,1.1646505882352942,0.23545024830380054
0.665,0.2243,1.17463,0.238875,1.174631568627451,0.23887553032587763
0.67,0.22656,1.18461,0.242255,1.184612549019608,0.24225569114957
0.675,0.22872,1.19459,0.24455,1.1945935294117647,0.24455099946008632
0.68,0.2307,1.20458,0.247865,1.2045745098039216,0.24786345385784542
0.685,0.2329,1.21456,0.249835,1.2145554901960784,0.24983419619693353
0.69,0.23492,1.22454,0.25182499999999997,1.2245364705882353,0.25182430882535883
0.695,0.23728,1.23452,0.253555,1.2345174509803922,0.253554600587258
0.7,0.23913,1.2445,0.25504,1.2444984313725491,0.25503977435187725
0.705,0.2412,1.25448,0.256575,1.254479411764706,0.25657489663396593
0.71,0.24292,1.26446,0.258525,1.264460392156863,0.2585250787637117
0.715,0.24526,1.27444,0.260405,1.2744413725490196,0.2604052363314997
0.72,0.2468,1.28442,0.26222999999999996,1.2844223529411765,0.26223052740734526
0.725,0.25053,1.2944,0.26487499999999997,1.2944033333333334,0.2648759165617037
0.73,0.2523,1.30438,0.26754500000000003,1.3043843137254902,0.267546180539911
0.735,0.25424,1.31437,0.270505,1.3143652941176471,0.27050348547286235
0.74,0.25588,1.32435,0.274075,1.324346274509804,0.27407350614944403
0.745,0.25745,1.33433,0.27823,1.334327254901961,0.2782289120911932
0.75,0.25935,1.34431,0.28210999999999997,1.3443082352941178,0.28210924269836113
0.755,0.26062,1.35429,0.28692,1.3542892156862745,0.2869196083775173
0.76,0.26248,1.36427,0.291855,1.3642701960784314,0.29185509861509223
0.765,0.26347,1.37425,0.29715,1.3742511764705883,0.29715066363709397
0.77,0.26473,1.38423,0.303245,1.3842321568627451,0.303246433400977
0.775,0.26554,1.39421,0.310295,1.394213137254902,0.3102972872549425
0.78,0.2662,1.40419,0.31755500000000003,1.404194117647059,0.3175579679548389
0.785,0.2671,1.41418,0.324705,1.4141750980392158,0.32470148390835957
0.79,0.26738,1.42416,0.33187500000000003,1.4241560784313727,0.3318722057634423
0.795,0.26794,1.43414,0.33922,1.4341370588235294,0.33921765938102666
0.8,0.26907,1.44412,0.34777,1.4441180392156863,0.34776827024011114
0.805,0.26838,1.4541,0.35650000000000004,1.4540990196078432,0.35649914720801185
0.81,0.26822,1.46408,0.36519,1.46408,0.36519
0.815,0.26693,1.47406,0.37392000000000003,1.474060980392157,0.37392084999600994
0.82,0.26669,1.48404,0.382685,1.4840419607843138,0.38268679634112546
0.825,0.26615,1.49402,0.3922,1.4940229411764707,0.39220283383021914
0.83,0.26517,1.504,0.401675,1.5040039215686276,0.40167867946308083
0.835,0.26481,1.51399,0.41108,1.5139849019607845,0.41107512656390394
0.84,0.26352,1.52397,0.420655,1.5239658823529412,0.42065112722219905
0.845,0.26274,1.53395,0.430025,1.533946862745098,0.4300219353724104
0.85,0.26165,1.54393,0.44008,1.543927843137255,0.44007786216177486
0.855,0.25964,1.55391,0.449485,1.5539088235294118,0.44948393157193367
0.86,0.25848,1.56389,0.45846,1.5638898039215687,0.4584598232866975
0.865,0.25736,1.57387,0.467565,1.5738707843137256,0.46756572294622617
0.87,0.25632,1.58385,0.476845,1.5838517647058825,0.47684665581162167
0.875,0.25441,1.59383,0.48613,1.5938327450980394,0.48613248631028516
0.88,0.2534,1.60381,0.4949,1.6038137254901963,0.4949032266802562
0.885,0.25215,1.6138,0.50353,1.613794705882353,0.5035254592565265
0.89,0.25134,1.62378,0.5120899999999999,1.6237756862745099,0.5120862563411583
0.895,0.24964,1.63376,0.5204949999999999,1.6337566666666667,0.5204924312658291
0.9,0.2492,1.64374,0.527585,1.6437376470588236,0.5275833350074708
0.905,0.24712,1.65372,0.53492,1.6537186274509805,0.5349189910991763
0.91,0.24601,1.6637,0.5416700000000001,1.6636996078431374,0.541669770145994
0.915,0.24446,1.67368,0.5472049999999999,1.6736805882352943,0.5472053607942644
0.92,0.24325,1.68366,0.5541100000000001,1.683661568627451,0.5541110980084016
0.925,0.24175,1.69364,0.56053,1.6936425490196079,0.5605315095226235
0.93,0.24116,1.70362,0.566405,1.7036235294117648,0.5664072132738369
0.935,0.23904,1.7136,0.57301,1.7136045098039216,0.5730129359056512
0.94,0.23768,1.72359,0.578845,1.7235854901960785,0.578842715193451
0.945,0.23648,1.73357,0.58335,1.7335664705882354,0.5833484859770907
0.95,0.23488,1.74355,0.587555,1.7435474509803923,0.5875539912278117
0.955,0.23483,1.75353,0.59161,1.7535284313725492,0.5916092611472995
0.96,0.23275,1.76351,0.59641,1.763509411764706,0.5964097753242202
0.965,0.23147,1.77349,0.599255,1.7734903921568628,0.599255117379438
0.97,0.23046,1.78347,0.6029450000000001,1.7834713725490197,0.6029455287557096
0.975,0.2281,1.79345,0.60665,1.7934523529411766,0.6066509004118557
0.98,0.2258,1.80343,0.61026,1.8034333333333334,0.6102609431502081
0.985,0.22396,1.81341,0.6124350000000001,1.8134143137254903,0.6124359679251392
0.99,0.22219,1.8234,0.615155,1.8233952941176472,0.6151536345152759
0.995,0.22039,1.83338,0.61801,1.8333762745098041,0.6180089195017896
1.0,0.21832,1.84336,0.620575,1.8433572549019608,0.6205745086253011
1.005,0.21677,1.85334,0.62176,1.8533382352941177,0.6217597858666128
1.01,0.21494,1.86332,0.6233493333333333,1.8633192156862746,0.6233492003238806
1.015,0.2132,1.8733,0.624914,1.8733001960784315,0.6249140290979404
1.02,0.21131,1.88328,0.626365,1.8832811764705883,0.6263651686222371
1.025,0.2098,1.89326,0.6277679999999999,1.8932621568627452,0.6277682937621747
1.03,0.20914,1.90324,0.6290785714285713,1.9032431372549021,0.6290789716559437
1.035,0.20782,1.91322,0.6302964285714286,1.913224117647059,0.6302968961329368
1.04,0.20676,1.92321,0.6313928571428571,1.923205098039216,0.631392300484757
1.045,0.20617,1.93319,0.6325485714285713,1.9331860784313726,0.632548144472041
1.05,0.20593,1.94317,0.6335592857142858,1.9431670588235295,0.6335589851435494
1.055,0.20503,1.95315,0.6345500000000002,1.9531480392156864,0.6345498353287125
1.06,0.20508,1.96313,0.635307142857143,1.9631290196078433,0.6353070572685238
1.065,0.2044,1.97311,0.63629,1.9731100000000001,0.63629
1.07,0.20425,1.98309,0.6370407692307692,1.983090980392157,0.6370408421781234
1.075,0.20473,1.99307,0.6378384615384614,1.993071960784314,0.6378386144639977
1.08,0.20542,2.00305,0.6385584615384615,2.0030529411764704,0.6385586669502128
1.085,0.20565,2.01303,0.6392538461538463,2.0130339215686273,0.6392541132627177
1.09,0.20726,2.02301,0.6398923076923076,2.023014901960784,0.6398925952277512
1.095,0.20795,2.033,0.6404491666666666,2.032995882352941,0.6404489344462463
1.1,0.20964,2.04298,0.6410569230769231,2.042976862745098,0.6410567170630129
1.105,0.21101,2.05296,0.6417225,2.052957843137255,0.6417223626189728
1.11,0.21279,2.06294,0.6423099999999999,2.0629388235294117,0.6423099338415654
1.115,0.21451,2.07292,0.6428516666666667,2.0729198039215686,0.6428516567064385
1.12,0.21728,2.0829,0.6433699999999999,2.0829007843137255,0.643370046443491
1.125,0.21859,2.09288,0.6440033333333334,2.0928817647058824,0.6440034366308159
1.13,0.22078,2.10286,0.64456,2.1028627450980393,0.6445601766623825
1.135,0.22307,2.11284,0.6452833333333333,2.112843725490196,0.6452835897424939
1.14,0.22571,2.12282,0.6458124999999999,2.122824705882353,0.6458126732686408
1.145,0.22827,2.13281,0.6461427272727273,2.13280568627451,0.6461425456576745
1.15,0.22965,2.14279,0.6466445454545454,2.142786666666667,0.6466443962180706
1.155,0.23182,2.15277,0.6469627272727272,2.1527676470588237,0.6469626676872957
1.16,0.23442,2.16275,0.6472245454545453,2.16274862745098,0.6472245066268946
1.165,0.23648,2.17273,0.6475463636363635,2.172729607843137,0.6475463491417764
1.17,0.23826,2.18271,0.6479699999999999,2.182710588235294,0.6479700282059132
1.175,0.23949,2.19269,0.6484663636363637,2.192691568627451,0.6484664386040376
1.18,0.24137,2.20267,0.6488963636363636,2.2026725490196077,0.6488964639261423
1.185,0.24314,2.21265,0.6492600000000002,2.2126535294117646,0.6492601178594003
1.19,0.24424,2.22263,0.6495718181818182,2.2226345098039215,0.6495719540115387
1.195,0.24486,2.23262,0.6498379999999999,2.2326154901960784,0.6498379106957184
1.2,0.24724,2.2426,0.650037,2.2425964705882353,0.6500368926100779
1.205,0.24849,2.25258,0.6504018181818181,2.252577450980392,0.6504017469247954
1.21,0.24934,2.26256,0.65053,2.262558431372549,0.6505299906403349
1.215,0.25033,2.27254,0.65062,2.272539411764706,0.6506199919008103
1.22,0.25164,2.28252,0.650841,2.282520392156863,0.6508410127233119
1.225,0.25201,2.2925,0.651154,2.2925013725490198,0.6511540232954123
1.23,0.25284,2.30248,0.6511933333333332,2.3024823529411766,0.6511933464321024
1.235,0.25427,2.31246,0.6514119999999999,2.3124633333333335,0.651412127772931
1.24,0.25481,2.32244,0.651857,2.32244431372549,0.6518571752417799
1.245,0.25527,2.33242,0.6520966666666667,2.332425294117647,0.6520966928853232
1.25,0.25619,2.34241,0.652087,2.3424062745098038,0.6520869677084744
1.255,0.25696,2.35239,0.6523066666666667,2.3523872549019607,0.6523066021981927
1.26,0.25813,2.36237,0.6524955555555556,2.3623682352941175,0.6524955198986901
1.265,0.25892,2.37235,0.652761111111111,2.3723492156862744,0.652761085780281
1.27,0.25994,2.38233,0.6530633333333334,2.3823301960784313,0.6530633375056387
1.275,0.26087,2.39231,0.653192,2.392311176470588,0.653192014250635
1.28,0.2617,2.40229,0.65336875,2.402292156862745,0.6533687976263006
1.285,0.26276,2.41227,0.6535855555555555,2.412273137254902,0.6535856116067026
1.29,0.26409,2.42225,0.6537244444444446,2.422254117647059,0.6537244994903427
1.295,0.26566,2.43223,0.6538344444444445,2.432235098039216,0.6538344621485302
1.3,0.26681,2.44222,0.6538122222222222,2.4422160784313727,0.6538122256801568
1.305,0.26828,2.4522,0.6538425000000001,2.452197058823529,0.6538424927271514
1.31,0.26976,2.46218,0.6538733333333333,2.462178039215686,0.6538733149782917
1.315,0.27125,2.47216,0.6540187500000001,2.472159019607843,0.6540187371991888
1.32,0.27289,2.48214,0.6541111111111112,2.48214,0.6541111111111112
1.325,0.27526,2.49212,0.6542,2.4921209803921567,0.6542000018347786
1.33,0.27718,2.5021,0.6541612499999999,2.5021019607843136,0.6541612454778903
1.335,0.27928,2.51208,0.65417,2.5120829411764705,0.6541699951143313
1.34,0.28067,2.52206,0.6541044444444445,2.5220639215686274,0.654104412553015
1.345,0.28355,2.53204,0.6540374999999999,2.5320449019607842,0.6540374723600179
1.35,0.28563,2.54203,0.65400625,2.542025882352941,0.6540062451516905
1.355,0.28821,2.55201,0.6540225,2.552006862745098,0.6540225112032512
1.36,0.29061,2.56199,0.6539157142857144,2.561987843137255,0.6539157446918453
1.365,0.2931,2.57197,0.6538125,2.571968823529412,0.6538125037221038
1.37,0.29589,2.58195,0.65381875,2.5819498039215687,0.6538187504705723
1.375,0.29841,2.59193,0.6537274999999999,2.5919307843137256,0.6537274899700696
1.38,0.30152,2.60191,0.6535871428571429,2.601911764705882,0.6535871144995821
1.385,0.30497,2.61189,0.6534337499999999,2.611892745098039,0.6534337191555287
1.39,0.3086,2.62187,0.6533385714285715,2.621873725490196,0.6533385203793382
1.395,0.31199,2.63185,0.6531450000000001,2.6318547058823527,0.6531449022911362
1.4,0.31565,2.64183,0.6529214285714285,2.6418356862745096,0.6529212657008695
1.405,0.31946,2.65182,0.6526075,2.6518166666666665,0.6526075872046974
1.41,0.32295,2.6618,0.6523200000000001,2.6617976470588234,0.6523201115523783
1.415,0.32646,2.67178,0.6515571428571428,2.6717786274509803,0.6515572799851517
1.42,0.32993,2.68176,0.6506299999999999,2.681759607843137,0.6506300239059999
1.425,0.33382,2.69174,0.65026125,2.691740588235294,0.650261223054626
1.43,0.33766,2.70172,0.6494485714285715,2.701721568627451,0.6494483973646334
1.435,0.34078,2.7117,0.6482285714285715,2.711702549019608,0.6482282620558144
1.44,0.34536,2.72168,0.6468771428571429,2.7216835294117647,0.6468765197536102
1.445,0.35018,2.73166,0.6446014285714287,2.7316645098039216,0.6446002430724936
1.45,0.35459,2.74164,0.6418357142857143,2.7416454901960785,0.6418341359203796
1.455,0.35841,2.75163,0.6388166666666666,2.7516264705882354,0.6388178143589266
1.46,0.3626,2.76161,0.6352914285714286,2.7616074509803923,0.6352923923327735
1.465,0.36778,2.77159,0.63129,2.7715884313725487,0.6312906665795529
1.47,0.37198,2.78157,0.6270057142857143,2.7815694117647056,0.6270059571137547
1.475,0.37586,2.79155,0.6231133333333333,2.7915503921568625,0.6231131836291073
1.48,0.38017,2.80153,0.6193042857142856,2.8015313725490194,0.619303770638715
1.485,0.3852,2.81151,0.6156466666666667,2.8115123529411763,0.6156458157046385
1.49,0.38952,2.82149,0.6121742857142858,2.821493333333333,0.6121732144941787
1.495,0.39488,2.83147,0.609185,2.83147431372549,0.6091837265249664
1.5,0.39922,2.84145,0.6062185714285714,2.841455294117647,0.606217046357024
1.505,0.40413,2.85144,0.6035499999999999,2.851436274509804,0.6035509149246311
1.51,0.40899,2.86142,0.6012783333333332,2.8614172549019607,0.6012789203232832
1.515,0.41317,2.8714,0.5992114285714286,2.8713982352941176,0.5992117873106474
1.52,0.41851,2.88138,0.5973283333333334,2.8813792156862745,0.597328459142793
1.525,0.4228,2.89136,0.59601,2.8913601960784314,0.5960099769700371
1.53,0.42783,2.90134,0.5947633333333333,2.9013411764705883,0.5947631676511327
1.535,0.43222,2.91132,0.5933283333333333,2.911322156862745,0.5933280629861426
1.54,0.43732,2.9213,0.5922885714285714,2.9213031372549016,0.5922882524045675
1.545,0.44284,2.93128,0.5911780000000001,2.9312841176470585,0.5911775293338103
1.55,0.44724,2.94126,0.5901116666666666,2.9412650980392154,0.5901111799868193
1.555,0.45173,2.95125,0.5892866666666666,2.9512460784313723,0.5892869494645807
1.56,0.45617,2.96123,0.5885333333333334,2.961227058823529,0.5885335988383577
1.565,0.46075,2.97121,0.5875766666666666,2.971208039215686,0.5875768251118221
1.57,0.46499,2.98119,0.586995,2.981189019607843,0.5869950479852665
1.575,0.47014,2.99117,0.5863366666666666,2.99117,0.5863366666666666
1.58,0.47416,,,,
1.585,0.47953,,,,
1.59,0.48403,,,,
1.595,0.48823,,,,
1.6,0.49247,,,,
1.605,0.49733,,,,
1.61,0.50139,,,,
1.615,0.50567,,,,
1.62,0.50997,,,,
1.625,0.51421,,,,
1.63,0.51782,,,,
1.635,0.52317,,,,
1.64,0.52552,,,,
1.645,0.52965,,,,
1.65,0.53309,,,,
1.655,0.53675,,,,
1.66,0.54039,,,,
1.665,0.54295,,,,
1.67,0.54545,,,,
1.675,0.54896,,,,
1.68,0.55256,,,,
1.685,0.55566,,,,
1.69,0.55911,,,,
1.695,0.56195,,,,
1.7,0.56386,,,,
1.705,0.56895,,,,
1.71,0.57152,,,,
1.715,0.5745,,,,
1.72,0.57749,,,,
1.725,0.5802,,,,
1.73,0.58253,,,,
1.735,0.58417,,,,
1.74,0.58625,,,,
1.745,0.58886,,,,
1.75,0.59023,,,,
1.755,0.59299,,,,
1.76,0.59505,,,,
1.765,0.59777,,,,
1.77,0.59853,,,,
1.775,0.59998,,,,
1.78,0.60175,,,,
1.785,0.60414,,,,
1.79,0.6057,,,,
1.795,0.6076,,,,
1.8,0.60976,,,,
1.805,0.61076,,,,
1.81,0.61189,,,,
1.815,0.61298,,,,
1.82,0.61423,,,,
1.825,0.61608,,,,
1.83,0.61731,,,,
1.835,0.61871,,,,
1.84,0.6199,,,,
1.845,0.62125,,,,
1.85,0.62108,,,,
1.8512,0.6213,,,,
1.8519,0.62142,,,,
1.8526,0.62145,,,,
1.8532,0.62145,,,,
1.8539,0.62166,,,,
1.8545,0.62174,,,,
1.8552,0.62179,,,,
1.8559,0.62206,,,,
1.8565,0.62229,,,,
1.8572,0.62239,,,,
1.8579,0.62249,,,,
1.8585,0.62265,,,,
1.8592,0.62279,,,,
1.8599,0.62274,,,,
1.8605,0.62299,,,,
1.8612,0.62318,,,,
1.8619,0.62342,,,,
1.8625,0.62338,,,,
