Wavelength (µm) raw,SynOl_Fo90 raw,Wavelength (µm) bin avg,SynOl_Fo90 bin avg,Wavelength (µm) cubic spline of bin avg,SynOl_Fo90 cubic spline of bin avg
0.3,0.23606,0.44602,0.490245,0.44602,0.490245
0.305,0.24717,0.456,0.49681,0.45600098039215686,0.49681068262829353
0.31,0.25633,0.46598,0.504275,0.46598196078431375,0.5042765810935333
0.315,0.2681,0.47596,0.51292,0.47596294117647064,0.5129227089524866
0.32,0.2791,0.48595,0.5225150000000001,0.4859439215686275,0.5225089850529048
0.325,0.29213,0.49593,0.530965,0.4959249019607843,0.5309622347203143
0.33,0.3076,0.50591,0.535,0.5059058823529412,0.5349975520746666
0.335,0.32251,0.51589,0.543795,0.5158868627450981,0.543792064324057
0.34,0.33505,0.52587,0.55209,0.525867843137255,0.5520882749585638
0.345,0.34852,0.53585,0.56108,0.5358488235294118,0.5610787517986228
0.35,0.36009,0.54583,0.5723199999999999,0.5458298039215687,0.572319796592549
0.355,0.37242,0.55581,0.581375,0.5558107843137255,0.5813756982109803
0.36,0.38255,0.56579,0.5898000000000001,0.5657917647058823,0.5898011580557847
0.365,0.39292,0.57577,0.5939049999999999,0.5757727450980392,0.5939056894071834
0.37,0.40186,0.58576,0.59561,0.5857537254901961,0.5956094655699996
0.375,0.40975,0.59574,0.5952999999999999,0.595734705882353,0.5953009148744562
0.38,0.41685,0.60572,0.5931150000000001,0.6057156862745099,0.5931156194901941
0.385,0.42438,0.6157,0.59272,0.6156966666666667,0.592720095097386
0.39,0.43144,0.62568,0.59167,0.6256776470588236,0.5916704155361845
0.395,0.43822,0.63566,0.589735,0.6356586274509805,0.5897352227306556
0.4,0.44414,0.64564,0.588075,0.6456396078431372,0.5880750999919845
0.405,0.45007,0.65562,0.5844149999999999,0.6556205882352941,0.5844147547128556
0.41,0.45435,0.6656,0.58032,0.665601568627451,0.5803193596531522
0.415,0.45914,0.67558,0.57603,0.6755825490196079,0.5760288002155082
0.42,0.46532,0.68556,0.5709500000000001,0.6855635294117648,0.5709481444705863
0.425,0.47118,0.69555,0.565755,0.6955445098039216,0.5657578192895448
0.43,0.47584,0.70553,0.5606,0.7055254901960785,0.5606023896027167
0.435,0.48074,0.71551,0.555185,0.7155064705882352,0.5551869211719175
0.44,0.48557,0.72549,0.549805,0.7254874509803921,0.5498063708500884
0.445,0.48899,0.73547,0.54434,0.735468431372549,0.5443408854974083
0.45,0.4915,0.74545,0.53871,0.7454494117647059,0.5387103172611903
0.455,0.49477,0.75543,0.533385,0.7554303921568628,0.5333847759935344
0.46,0.49885,0.76541,0.52728,0.7654113725490197,0.5272791604504317
0.465,0.50261,0.77539,0.52137,0.7753923529411766,0.5213686028097547
0.47,0.50594,0.78537,0.515385,0.7853733333333334,0.5153830374578866
0.475,0.5107,0.79536,0.50957,0.7953543137254901,0.5095733916577702
0.48,0.51514,0.80534,0.5036400000000001,0.805335294117647,0.5036426078827652
0.485,0.5203,0.81532,0.49823,0.8153162745098039,0.4982322194059133
0.49,0.52473,0.8253,0.491865,0.8252972549019608,0.4918666535163803
0.495,0.52836,0.83528,0.486795,0.8352782352941177,0.48679576291696347
0.5,0.53357,0.84526,0.48258500000000004,0.8452592156862746,0.4825853592260767
0.505,0.53354,0.85524,0.477955,0.8552401960784315,0.4779549229562382
0.51,0.53646,0.86522,0.474655,0.8652211764705883,0.4746545834632156
0.515,0.54138,0.8752,0.47078,0.875202156862745,0.47077925008266486
0.52,0.54621,0.88518,0.468115,0.8851831372549019,0.46811430657446707
0.525,0.54989,0.89517,0.46577999999999997,0.8951641176470588,0.4657815907842261
0.53,0.55429,0.90515,0.46297,0.9051450980392157,0.4629711915949615
0.535,0.55855,0.91513,0.461115,0.9151260784313726,0.4611156261383372
0.54,0.56361,0.92511,0.45935000000000004,0.9251070588235295,0.45935060721559795
0.545,0.56945,0.93509,0.457265,0.9350880392156864,0.45726533686234294
0.55,0.57519,0.94507,0.45525000000000004,0.9450690196078432,0.4552503321925458
0.555,0.57902,0.95505,0.45111999999999997,0.95505,0.45111999999999997
0.56,0.58373,0.96503,0.44928500000000005,0.9650309803921568,0.44928482905471995
0.565,0.58774,0.97501,0.44699,0.9750119607843137,0.44698956060644646
0.57,0.59186,0.98499,0.44511,0.9849929411764706,0.4451094580891889
0.575,0.59327,0.99497,0.44306500000000004,0.9949739215686275,0.4430641419912486
0.58,0.59454,1.00496,0.440695,1.0049549019607844,0.4406963612463739
0.585,0.59573,1.01494,0.438255,1.0149358823529413,0.4382556520433233
0.59,0.59549,1.02492,0.43724,1.0249168627450982,0.43724043399328305
0.595,0.59518,1.0349,0.43578,1.0348978431372549,0.43578006954298515
0.6,0.59542,1.04488,0.43659499999999996,1.0448788235294117,0.43659491379958415
0.605,0.59279,1.05486,0.43696500000000005,1.0548598039215686,0.43696498129779393
0.61,0.59344,1.06484,0.43891,1.0648407843137255,0.43891018909746143
0.615,0.59269,1.07482,0.44154499999999997,1.0748217647058824,0.4415455593846634
0.62,0.59275,1.0848,0.44543,1.0848027450980393,0.44543123791335926
0.625,0.59206,1.09478,0.45019,1.0947837254901962,0.45019178062777626
0.63,0.59128,1.10477,0.455065,1.104764705882353,0.45506218352675454
0.635,0.58997,1.11475,0.460345,1.1147456862745098,0.46034307973068617
0.64,0.5895,1.12473,0.46429,1.1247266666666667,0.46428846461426426
0.645,0.58904,1.13471,0.469765,1.1347076470588235,0.46976372023491364
0.65,0.58711,1.14469,0.474175,1.1446886274509804,0.47417453982093133
0.655,0.58517,1.15467,0.47740000000000005,1.1546696078431373,0.4773998391476192
0.66,0.58366,1.16465,0.48218,1.1646505882352942,0.48218025313016005
0.665,0.58117,1.17463,0.48555499999999996,1.174631568627451,0.4855555018140016
0.67,0.57947,1.18461,0.48919,1.184612549019608,0.48919101272086435
0.675,0.57738,1.19459,0.49299000000000004,1.1945935294117647,0.4929911501252486
0.68,0.57468,1.20458,0.495755,1.2045745098039216,0.49575350783581845
0.685,0.57221,1.21456,0.498485,1.2145554901960784,0.49848392708245304
0.69,0.56969,1.22454,0.5006550000000001,1.2245364705882353,0.500654119029967
0.695,0.56716,1.23452,0.5037400000000001,1.2345174509803922,0.5037391251010315
0.7,0.56435,1.2445,0.507145,1.2444984313725491,0.507144484956832
0.705,0.56188,1.25448,0.51022,1.254479411764706,0.5102198286355684
0.71,0.55932,1.26446,0.51311,1.264460392156863,0.513110117441464
0.715,0.5565,1.27444,0.516025,1.2744413725490196,0.516025351046864
0.72,0.55387,1.28442,0.51848,1.2844223529411765,0.5184806863309808
0.725,0.55125,1.2944,0.5219400000000001,1.2944033333333334,0.52194118534901
0.73,0.54836,1.30438,0.52515,1.3043843137254902,0.5251512547022948
0.735,0.54574,1.31437,0.528155,1.3143652941176471,0.5281533613934077
0.74,0.54294,1.32435,0.532255,1.324346274509804,0.5322533194489026
0.745,0.54034,1.33433,0.536675,1.334327254901961,0.5366738786632504
0.75,0.53708,1.34431,0.540495,1.3443082352941178,0.5404943083006849
0.755,0.53429,1.35429,0.5445949999999999,1.3542892156862745,0.5445946828151019
0.76,0.53248,1.36427,0.54825,1.3642701960784314,0.5482500630505003
0.765,0.52865,1.37425,0.551375,1.3742511764705883,0.5513754087561766
0.77,0.52591,1.38423,0.5555399999999999,1.3842321568627451,0.5555410355131583
0.775,0.52275,1.39421,0.560805,1.394213137254902,0.5608067784700234
0.78,0.51999,1.40419,0.566535,1.404194117647059,0.5665372955629756
0.785,0.51682,1.41418,0.571425,1.4141750980392158,0.5714230681648921
0.79,0.51395,1.42416,0.574545,1.4241560784313727,0.5745439310830279
0.795,0.51067,1.43414,0.577445,1.4341370588235294,0.5774440433156424
0.8,0.50847,1.44412,0.58115,1.4441180392156863,0.5811491926698038
0.805,0.50495,1.4541,0.5856300000000001,1.4540990196078432,0.5856295214237237
0.81,0.50233,1.46408,0.59022,1.46408,0.59022
0.815,0.49928,1.47406,0.5930949999999999,1.474060980392157,0.5930953014181789
0.82,0.49718,1.48404,0.5969500000000001,1.4840419607843138,0.5969508455024063
0.825,0.49306,1.49402,0.60121,1.4940229411764707,0.6012111974020647
0.83,0.49067,1.504,0.60524,1.5040039215686276,0.6052416952760484
0.835,0.48816,1.51399,0.609465,1.5139849019607845,0.6094632463095261
0.84,0.48543,1.52397,0.612365,1.5239658823529412,0.6123636314338751
0.845,0.48381,1.53395,0.616465,1.533946862745098,0.6164636490571468
0.85,0.48136,1.54393,0.6202449999999999,1.543927843137255,0.6202443228995264
0.855,0.47867,1.55391,0.62313,1.5539088235294118,0.6231296267643499
0.86,0.47724,1.56389,0.6265400000000001,1.5638898039215687,0.6265399393460299
0.865,0.47611,1.57387,0.62921,1.5738707843137256,0.6292102141690986
0.87,0.4732,1.58385,0.6321950000000001,1.5838517647058825,0.6321955264393541
0.875,0.4716,1.59383,0.63495,1.5938327450980394,0.6349507112664511
0.88,0.46996,1.60381,0.6373949999999999,1.6038137254901963,0.6373958507864572
0.885,0.46882,1.6138,0.639895,1.613794705882353,0.6398933425552465
0.89,0.46741,1.62378,0.643285,1.6237756862745099,0.6432837530736172
0.895,0.46662,1.63376,0.6453599999999999,1.6337566666666667,0.6453594212209987
0.9,0.46494,1.64374,0.647315,1.6437376470588236,0.6473144638669347
0.905,0.46327,1.65372,0.64979,1.6537186274509805,0.6497896615800888
0.91,0.46267,1.6637,0.65194,1.6636996078431374,0.6519399309112236
0.915,0.46159,1.67368,0.653725,1.6736805882352943,0.6537251362434143
0.92,0.46064,1.68366,0.65631,1.683661568627451,0.6563103309841007
0.925,0.45972,1.69364,0.657655,1.6936425490196079,0.6576552693614166
0.93,0.45898,1.70362,0.65912,1.7036235294117648,0.6591207448001324
0.935,0.45768,1.7136,0.66176,1.7136045098039216,0.6617612821837559
0.94,0.45685,1.72359,0.66428,1.7235854901960785,0.6642790884496046
0.945,0.45571,1.73357,0.665875,1.7335664705882354,0.6658744937234482
0.95,0.45479,1.74355,0.667385,1.7435474509803923,0.6673845985894817
0.955,0.4516,1.75353,0.66906,1.7535284313725492,0.6690597112899803
0.96,0.45064,1.76351,0.670855,1.763509411764706,0.6708549121249991
0.965,0.45011,1.77349,0.67199,1.7734903921568628,0.671990038889822
0.97,0.44846,1.78347,0.6731400000000001,1.7834713725490197,0.6731401932813406
0.975,0.44784,1.79345,0.67455,1.7934523529411766,0.6745502519913623
0.98,0.44614,1.80343,0.6752284615384616,1.8034333333333334,0.6752286566590249
0.985,0.44511,1.81341,0.67589875,1.8134143137254903,0.6758990269384769
0.99,0.44373,1.8234,0.6764626666666668,1.8233952941176472,0.6764624055202068
0.995,0.4424,1.83338,0.6770325000000001,1.8333762745098041,0.6770322971314673
1.0,0.44126,1.84336,0.6775739999999999,1.8433572549019608,0.6775738332032452
1.005,0.44013,1.85334,0.6782006666666667,1.8533382352941177,0.6782005720024451
1.01,0.43923,1.86332,0.67868,1.8633192156862746,0.6786799551843968
1.015,0.43728,1.8733,0.6793246666666665,1.8733001960784315,0.6793246775821021
1.02,0.43773,1.88328,0.6797700000000001,1.8832811764705883,0.6797700562808549
1.025,0.43675,1.89326,0.6803286666666667,1.8932621568627452,0.6803287848313566
1.03,0.43607,1.90324,0.6808249999999999,1.9032431372549021,0.6808251573288342
1.035,0.43549,1.91322,0.6813721428571429,1.913224117647059,0.6813723829017387
1.04,0.43655,1.92321,0.6820107142857144,1.923205098039216,0.6820103569449577
1.045,0.43664,1.93319,0.6828,1.9331860784313726,0.6827996896929667
1.05,0.43636,1.94317,0.6835635714285714,1.9431670588235295,0.6835633438336063
1.055,0.43757,1.95315,0.6843653846153845,1.9531480392156864,0.6843652240344463
1.06,0.43867,1.96313,0.6851750000000001,1.9631290196078433,0.6851749221286101
1.065,0.43915,1.97311,0.6859738461538463,1.9731100000000001,0.6859738461538463
1.07,0.44059,1.98309,0.6868353846153846,1.983090980392157,0.6868354670709612
1.075,0.4425,1.99307,0.6876684615384614,1.993071960784314,0.6876686362235134
1.08,0.44422,2.00305,0.6886407692307692,2.0030529411764704,0.6886410699590585
1.085,0.44664,2.01303,0.6896946153846154,2.0130339215686273,0.6896950506443086
1.09,0.44893,2.02301,0.6908307692307694,2.023014901960784,0.6908313188047919
1.095,0.45145,2.033,0.6919358333333334,2.032995882352941,0.6919353642090976
1.1,0.45393,2.04298,0.6931,2.042976862745098,0.6930996424741059
1.105,0.4562,2.05296,0.6942316666666667,2.052957843137255,0.6942314070703969
1.11,0.45914,2.06294,0.6954949999999999,2.0629388235294117,0.6954948534862976
1.115,0.46155,2.07292,0.6967183333333332,2.0729198039215686,0.6967183080408672
1.12,0.46351,2.0829,0.6981075,2.0829007843137255,0.6981076135826071
1.125,0.46507,2.09288,0.6995166666666667,2.0928817647058824,0.6995169012265039
1.13,0.46773,2.10286,0.7007254545454544,2.1028627450980393,0.7007257577739504
1.135,0.4718,2.11284,0.70188,2.112843725490196,0.701880505387189
1.14,0.47269,2.12282,0.7034883333333334,2.122824705882353,0.7034891685765471
1.145,0.47566,2.13281,0.70523,2.13280568627451,0.7052293058949269
1.15,0.47692,2.14279,0.7067272727272728,2.142786666666667,0.7067267660380431
1.155,0.47788,2.15277,0.7083827272727273,2.1527676470588237,0.708382306642184
1.16,0.48111,2.16275,0.7102027272727272,2.16274862745098,0.7102024834631095
1.165,0.48325,2.17273,0.7119227272727273,2.172729607843137,0.7119226587106251
1.17,0.48479,2.18271,0.7136590909090909,2.182710588235294,0.7136591862148105
1.175,0.48632,2.19269,0.7151836363636362,2.192691568627451,0.7151838831369418
1.18,0.48876,2.20267,0.7168136363636365,2.2026725490196077,0.7168140364932244
1.185,0.48962,2.21265,0.718299,2.2126535294117646,0.7182995338474562
1.19,0.49209,2.22263,0.7198918181818182,2.2226345098039215,0.7198925547107833
1.195,0.49389,2.23262,0.7214780000000001,2.2326154901960784,0.7214773207461416
1.2,0.49513,2.2426,0.7229410000000001,2.2425964705882353,0.7229404694252672
1.205,0.49638,2.25258,0.7244754545454546,2.252577450980392,0.7244750744979437
1.21,0.4988,2.26256,0.725884,2.262558431372549,0.725883783582309
1.215,0.49817,2.27254,0.72724,2.272539411764706,0.7272399234895217
1.22,0.49949,2.28252,0.7285289999999999,2.282520392156863,0.728529053668737
1.225,0.50182,2.2925,0.729878,2.2925013725490198,0.7298781585225286
1.23,0.50258,2.30248,0.7308533333333334,2.3024823529411766,0.7308535682681292
1.235,0.5049,2.31246,0.7320880000000001,2.3124633333333335,0.7320884982310314
1.24,0.5059,2.32244,0.7336389999999999,2.32244431372549,0.7336396025245345
1.245,0.50839,2.33242,0.7347466666666667,2.332425294117647,0.7347471482359967
1.25,0.50919,2.34241,0.735621,2.3424062745098038,0.7356206573796267
1.255,0.51125,2.35239,0.7366822222222221,2.3523872549019607,0.736681885341249
1.26,0.51227,2.36237,0.7379177777777778,2.3623682352941175,0.7379175879924653
1.265,0.51395,2.37235,0.7388344444444443,2.3723492156862744,0.7388343706587673
1.27,0.51521,2.38233,0.73987,2.3823301960784313,0.739870020193681
1.275,0.51684,2.39231,0.7408379999999999,2.392311176470588,0.7408381132252262
1.28,0.51787,2.40229,0.7418012500000001,2.402292156862745,0.7418014496881007
1.285,0.51909,2.41227,0.7426666666666666,2.412273137254902,0.7426669274364588
1.29,0.52117,2.42225,0.7434855555555555,2.422254117647059,0.7434858900586825
1.295,0.52271,2.43223,0.7442966666666666,2.432235098039216,0.7442970842622534
1.3,0.52444,2.44222,0.745101111111111,2.4422160784313727,0.7451008110673769
1.305,0.52586,2.4522,0.7458075000000001,2.452197058823529,0.7458073059875477
1.31,0.52717,2.46218,0.7464399999999999,2.462178039215686,0.7464398782142629
1.315,0.52914,2.47216,0.7470625000000001,2.472159019607843,0.7470624383839083
1.32,0.53168,2.48214,0.7476766666666665,2.48214,0.7476766666666665
1.325,0.53283,2.49212,0.74823,2.4921209803921567,0.74823005406699
1.33,0.53562,2.5021,0.74876875,2.5021019607843136,0.7487688469582947
1.335,0.53773,2.51208,0.7492387499999998,2.5120829411764705,0.7492388978964517
1.34,0.53946,2.52206,0.7497833333333332,2.5220639215686274,0.7497835466823327
1.345,0.54153,2.53204,0.750305,2.5320449019607842,0.750305257901817
1.35,0.54364,2.54203,0.7508125,2.542025882352941,0.75081231730163
1.355,0.54555,2.55201,0.75124625,2.552006862745098,0.7512460846659321
1.36,0.5475,2.56199,0.7518142857142857,2.561987843137255,0.7518141865993692
1.365,0.549,2.57197,0.75215125,2.571968823529412,0.752151208181896
1.37,0.55053,2.58195,0.752645,2.5819498039215687,0.7526449879260975
1.375,0.55222,2.59193,0.7532049999999999,2.5919307843137256,0.7532050273725089
1.38,0.55443,2.60191,0.75333,2.601911764705882,0.753330008337362
1.385,0.55665,2.61189,0.75347375,2.611892745098039,0.7534738241032422
1.39,0.55929,2.62187,0.7538242857142857,2.621873725490196,0.7538244194413046
1.395,0.56232,2.63185,0.7540450000000001,2.6318547058823527,0.7540450052905323
1.4,0.56528,2.64183,0.7539699999999999,2.6418356862745096,0.7539700191713798
1.405,0.56779,2.65182,0.75415875,2.6518166666666665,0.7541586848115505
1.41,0.57041,2.6618,0.7542628571428571,2.6617976470588234,0.7542628420827229
1.415,0.57244,2.67178,0.7540199999999999,2.6717786274509803,0.7540201192065155
1.42,0.57392,2.68176,0.7526871428571429,2.681759607843137,0.7526871948612969
1.425,0.57517,2.69174,0.751105,2.691740588235294,0.7511048476678543
1.43,0.57664,2.70172,0.747552857142857,2.701721568627451,0.74755226900613
1.435,0.57825,2.7117,0.7441714285714285,2.711702549019608,0.7441705988596974
1.44,0.58008,2.72168,0.7403557142857143,2.7216835294117647,0.7403539969534372
1.445,0.58222,2.73166,0.7346871428571429,2.7316645098039216,0.7346845300312869
1.45,0.58462,2.74164,0.7291171428571428,2.7416454901960785,0.729113990031498
1.455,0.58664,2.75163,0.722995,2.7516264705882354,0.7229972462594462
1.46,0.58912,2.76161,0.7165657142857141,2.7616074509803923,0.7165673740321564
1.465,0.59132,2.77159,0.7099885714285714,2.7715884313725487,0.7099896204821254
1.47,0.59322,2.78157,0.703522857142857,2.7815694117647056,0.7035232068351595
1.475,0.59297,2.79155,0.698255,2.7915503921568625,0.6982548115828606
1.48,0.59574,2.80153,0.6936628571428572,2.8015313725490194,0.6936622427952567
1.485,0.59816,2.81151,0.6892900000000001,2.8115123529411763,0.6892890022741502
1.49,0.60006,2.82149,0.6852942857142857,2.821493333333333,0.6852930462374888
1.495,0.60236,2.83147,0.681825,2.83147431372549,0.6818235655536423
1.5,0.6042,2.84145,0.6785757142857144,2.841455294117647,0.6785740327763499
1.505,0.60628,2.85144,0.6755816666666666,2.851436274509804,0.675582683162359
1.51,0.60882,2.86142,0.6731116666666667,2.8614172549019607,0.6731123051726287
1.515,0.61011,2.8714,0.6708842857142857,2.8713982352941176,0.6708846542145129
1.52,0.61164,2.88138,0.6690583333333332,2.8813792156862745,0.6690584514423885
1.525,0.61309,2.89136,0.6678466666666667,2.8913601960784314,0.667846646675605
1.53,0.61553,2.90134,0.6668266666666667,2.9013411764705883,0.6668265343847223
1.535,0.6174,2.91132,0.6657516666666666,2.911322156862745,0.6657514983363957
1.54,0.6197,2.9213,0.66526,2.9213031372549016,0.6652598547813177
1.545,0.62079,2.93128,0.6647040000000001,2.9312841176470585,0.6647037869457787
1.55,0.62271,2.94126,0.6643199999999999,2.9412650980392154,0.6643198507006528
1.555,0.62355,2.95125,0.6641483333333332,2.9512460784313723,0.6641483258661448
1.56,0.62594,2.96123,0.6642750000000001,2.961227058823529,0.6642749759196883
1.565,0.62714,2.97121,0.664365,2.971208039215686,0.6643649402319132
1.57,0.6282,2.98119,0.6649649999999999,2.981189019607843,0.6649649242422426
1.575,0.63022,2.99117,0.6656583333333334,2.99117,0.6656583333333334
1.58,0.63164,,,,
1.585,0.63275,,,,
1.59,0.63422,,,,
1.595,0.63568,,,,
1.6,0.63655,,,,
1.605,0.63824,,,,
1.61,0.63888,,,,
1.615,0.64091,,,,
1.62,0.64233,,,,
1.625,0.64424,,,,
1.63,0.64466,,,,
1.635,0.64606,,,,
1.64,0.64672,,,,
1.645,0.64791,,,,
1.65,0.64921,,,,
1.655,0.65037,,,,
1.66,0.65142,,,,
1.665,0.65246,,,,
1.67,0.65268,,,,
1.675,0.65477,,,,
1.68,0.65662,,,,
1.685,0.656,,,,
1.69,0.65732,,,,
1.695,0.65799,,,,
1.7,0.65883,,,,
1.705,0.65941,,,,
1.71,0.66128,,,,
1.715,0.66224,,,,
1.72,0.66384,,,,
1.725,0.66472,,,,
1.73,0.66575,,,,
1.735,0.666,,,,
1.74,0.66706,,,,
1.745,0.66771,,,,
1.75,0.66853,,,,
1.755,0.66959,,,,
1.76,0.67098,,,,
1.765,0.67073,,,,
1.77,0.67152,,,,
1.775,0.67246,,,,
1.78,0.67269,,,,
1.785,0.67359,,,,
1.79,0.6746,,,,
1.795,0.6745,,,,
1.8,0.6753,,,,
1.8011,0.67539,,,,
1.8017,0.67515,,,,
1.8023,0.67516,,,,
1.8029,0.67511,,,,
1.8036,0.67515,,,,
1.8042,0.67522,,,,
1.8048,0.67531,,,,
1.8055,0.67523,,,,
1.8061,0.67535,,,,
1.8067,0.67532,,,,
1.8073,0.67514,,,,
1.808,0.67514,,,,
1.8086,0.67541,,,,
1.8092,0.67554,,,,
1.8099,0.67561,,,,
1.8105,0.67562,,,,
1.8111,0.67561,,,,
1.8118,0.6755,,,,
1.8124,0.67559,,,,
1.813,0.67585,,,,
1.8137,0.676,,,,
1.8143,0.67597,,,,
1.8149,0.676,,,,
1.8156,0.67624,,,,
1.8162,0.67625,,,,
1.8168,0.67621,,,,
1.8175,0.67646,,,,
