Wavelength (µm) raw,Augite ws592 spliced raw,Wavelength (µm) bin avg,Augite ws592 spliced bin avg,Wavelength (µm) global,Augite ws592 global
0.3011,0.045344,0.44602,0.207174,0.461,0.218
0.3051,0.047974,0.456,0.214279,0.5009,0.2587
0.3091,0.049266,0.46598,0.2209724,0.5408,0.3048
0.3131,0.054325,0.47596,0.2297658,0.5808,0.3172
0.3171,0.058099,0.48595,0.2399166,0.6207,0.3073
0.3211,0.062474,0.49593,0.2523988,0.6606,0.3084
0.3251,0.068898,0.50591,0.2638479999999999,0.7005,0.3239
0.3291,0.072329,0.51589,0.2784976,0.7305,0.3411
0.3331,0.076753,0.52587,0.2926406,0.7504,0.3514
0.3371,0.081827,0.53585,0.3017778,0.7704,0.3599
0.3411,0.085483,0.54583,0.3093956,0.7904,0.3676
0.3451,0.090081,0.55581,0.315273,0.8103,0.3744
0.3491,0.095055,0.56579,0.3184844,0.8303,0.3787
0.3531,0.100909,0.57577,0.3183223999999999,0.8527,0.3751
0.3571,0.106824,0.58576,0.3171812,0.8777,0.359
0.3606,0.110864,0.59574,0.3147643999999999,0.9002,0.3368
0.3636,0.117003,0.60572,0.3115077142857143,0.9201,0.3159
0.3666,0.121547,0.6157,0.307939,0.9401,0.292
0.3696,0.124597,0.62568,0.3056621666666666,0.96,0.2689
0.3726,0.129644,0.63566,0.3040872,0.98,0.2546
0.3756,0.132322,0.64564,0.3059944,1.0,0.2453
0.3786,0.138221,0.65562,0.3056734,1.0199,0.2406
0.3811,0.140512,0.6656,0.3088164,1.0399,0.2443
0.3831,0.143531,0.67558,0.313078,1.0598,0.2553
0.3851,0.145015,0.68556,0.317451,1.0798,0.2714
0.3871,0.149176,0.69555,0.3201365,1.0998,0.292
0.3891,0.151659,0.70553,0.325685,1.1197,0.3155
0.3911,0.153158,0.71551,0.3324384,1.1397,0.3376
0.3931,0.157966,0.72549,0.3383911999999999,1.1597,0.3578
0.3951,0.159176,0.73547,0.3439582,1.1796,0.3752
0.3971,0.162667,0.74545,0.3495345,1.1996,0.3893
0.3991,0.163785,0.75543,0.3539795,1.2196,0.4019
0.4011,0.166948,0.76541,0.3581086666666667,1.2395,0.4131
0.4031,0.168349,0.77539,0.3613183333333333,1.2595,0.4235
0.4051,0.168709,0.78537,0.3662423333333333,1.2794,0.4333
0.4071,0.17254,0.79536,0.369413,1.2994,0.4437
0.4091,0.173716,0.80534,0.373375,1.3194,0.4528
0.4111,0.176884,0.81532,0.375637,1.3393,0.4606
0.4128,0.177089,0.8253,0.3793645,1.3593,0.4693
0.4158,0.180226,0.83528,0.379617,1.3792,0.4765
0.4188,0.184615,0.84526,0.380363,1.3992,0.4823
0.4218,0.183561,0.85524,0.3738315,1.4192,0.4907
0.4248,0.190318,0.8752,0.366689,1.4391,0.5004
0.4278,0.191427,0.88518,0.353368,1.4591,0.5092
0.4308,0.193831,0.89517,0.342254,1.479,0.5181
0.4338,0.197276,0.90515,0.328396,1.499,0.5252
0.4368,0.200065,0.91513,0.323247,1.519,0.5306
0.4398,0.202034,0.92511,0.309228,1.5389,0.5377
0.4428,0.202825,0.93509,0.302725,1.5589,0.5438
0.4458,0.20891,0.94507,0.284239,1.5888,0.549
0.4488,0.209787,0.95505,0.271928,1.6288,0.554
0.4513,0.21196,0.96503,0.262652,1.6687,0.5552
0.4533,0.211872,0.97501,0.256649,1.7086,0.5546
0.4553,0.214427,0.98499,0.251014,1.7485,0.5485
0.4573,0.216344,0.99497,0.248187,1.7885,0.5392
0.4593,0.216792,1.00496,0.2422455,1.8284,0.5266
0.4613,0.21506,1.01494,0.2396055,1.8683,0.5153
0.4633,0.220289,1.02492,0.2384264999999999,1.9082,0.496
0.4653,0.222859,1.0349,0.2419345,1.9482,0.4864
0.4673,0.223882,1.04488,0.2457105,1.9881,0.474
0.4693,0.222772,1.05486,0.2510405,2.028,0.4622
0.4713,0.227273,1.06484,0.2587565,2.0679,0.4492
0.4733,0.228328,1.07482,0.265669,2.1078,0.4353
0.4753,0.231038,1.0848,0.276437,2.1478,0.421
0.4773,0.22972,1.09478,0.2849245,2.1877,0.4084
0.4793,0.23247,1.10477,0.2969549999999999,2.2276,0.3968
0.4813,0.235417,1.11475,0.3095179999999999,2.2676,0.386
0.4833,0.239724,1.12473,0.3222589999999999,2.3075,0.3773
0.4853,0.240843,1.13471,0.3333615,2.3474,0.3763
0.4873,0.24178,1.14469,0.3412225,2.3873,0.3773
0.4893,0.241819,1.15467,0.3536979999999999,2.4272,0.3809
0.4913,0.247792,1.16465,0.3636155,2.4672,0.387
0.4933,0.249115,1.17463,0.372776,2.5071,0.3943
0.4953,0.252438,1.18461,0.38001,2.547,0.4026
0.4973,0.25581,1.19459,0.384298,2.5869,0.4099
0.4993,0.256839,1.20458,0.392636,2.6269,0.4171
0.5013,0.25705,1.21456,0.4002015,2.6668,0.4051
0.5033,0.261311,1.22454,0.4040745,2.7067,0.2401
0.5053,0.26444,1.23452,0.410659,2.7466,0.1747
0.5073,0.267013,1.2445,0.415057,2.7866,0.1731
0.5093,0.269426,1.25448,0.4224765,2.8265,0.1813
0.5113,0.27114,1.26446,0.4251224999999999,2.8664,0.1885
0.5133,0.276358,1.27444,0.4315155,2.9063,0.1914
0.5153,0.278234,1.28442,0.4363915,2.9463,0.1972
0.5173,0.284011,1.2944,0.440273,,
0.5193,0.282745,1.30438,0.4454585,,
0.5213,0.287643,1.31437,0.4525885,,
0.5233,0.289506,1.32435,0.454909,,
0.5253,0.293541,1.33433,0.458102,,
0.5273,0.293731,1.34431,0.4639355,,
0.5293,0.298782,1.35429,0.4652905,,
0.5313,0.298164,1.36427,0.47223,,
0.5333,0.300794,1.37425,0.4757639999999999,,
0.5353,0.301979,1.38423,0.476138,,
0.5373,0.301786,1.39421,0.482003,,
0.5393,0.306166,1.40419,0.483294,,
0.5413,0.306226,1.41418,0.48787,,
0.5433,0.308834,1.42416,0.494928,,
0.5453,0.308181,1.43414,0.4968855,,
0.5473,0.311339,1.44412,0.503351,,
0.5493,0.312398,1.4541,0.5064575,,
0.5513,0.312344,1.46408,0.51199,,
0.5533,0.314145,1.47406,0.514931,,
0.5553,0.315838,1.48404,0.5199469999999999,,
0.5573,0.316209,1.49402,0.5253825,,
0.5593,0.317829,1.504,0.525693,,
0.5613,0.316716,1.51399,0.5296585,,
0.5633,0.319832,1.52397,0.5322335,,
0.5653,0.319435,1.53395,0.535013,,
0.5673,0.319705,1.54393,0.5403445,,
0.5693,0.316734,1.55391,0.5430919999999999,,
0.5713,0.317828,1.56389,0.545796,,
0.5733,0.318697,1.57387,0.546033,,
0.5753,0.318088,1.58385,0.54721,,
0.5773,0.317891,1.59383,0.5508584999999999,,
0.5793,0.319108,1.60381,0.551822,,
0.5813,0.318378,1.6138,0.55369,,
0.5833,0.318094,1.62378,0.5548195,,
0.5853,0.317291,1.63376,0.552095,,
0.5873,0.31721,1.64374,0.5553615000000001,,
0.5893,0.314933,1.65372,0.553602,,
0.5913,0.318045,1.6637,0.5562765000000001,,
0.5933,0.312463,1.67368,0.554885,,
0.5953,0.315078,1.68366,0.5561,,
0.5973,0.314272,1.69364,0.554668,,
0.5993,0.313964,1.70362,0.5545979999999999,,
0.6011,0.311026,1.7136,0.554575,,
0.6027,0.312741,1.72359,0.554471,,
0.6043,0.311936,1.73357,0.552681,,
0.6059,0.311901,1.74355,0.5506175,,
0.6075,0.310492,1.75353,0.54716,,
0.6091,0.310882,1.76351,0.543626,,
0.6107,0.311576,1.77349,0.546538,,
0.6123,0.309167,1.78347,0.5387225,,
0.6139,0.310254,1.79345,0.538774,,
0.6155,0.309231,1.80343,0.5326930714285715,,
0.6171,0.307541,1.81341,0.5303488125000001,,
0.6187,0.305963,1.8234,0.5279716666666666,,
0.6203,0.305478,1.83338,0.525292125,,
0.6219,0.30523,1.84336,0.5226424,,
0.6235,0.306216,1.85334,0.5207101333333333,,
0.6251,0.305162,1.86332,0.5175390666666666,,
0.6267,0.304835,1.8733,0.5130713571428572,,
0.6283,0.30696,1.88328,0.5096934,,
0.6299,0.30557,1.89326,0.5031445714285715,,
0.6317,0.304047,1.90324,0.4959576,,
0.6337,0.304422,1.91322,0.4932835714285715,,
0.6357,0.304298,1.92321,0.491604,,
0.6377,0.304267,1.93319,0.4900139285714285,,
0.6397,0.303402,1.94317,0.488035923076923,,
0.6417,0.305965,1.95315,0.4854342857142857,,
0.6437,0.307613,1.96313,0.4823111538461538,,
0.6457,0.306535,1.97311,0.4787464285714286,,
0.6477,0.304953,1.98309,0.4755628461538461,,
0.6497,0.304906,1.99307,0.4723094615384615,,
0.6517,0.305381,2.00305,0.4691828461538461,,
0.6537,0.305566,2.01303,0.4664580769230769,,
0.6557,0.305122,2.02301,0.4637393333333333,,
0.6577,0.305534,2.033,0.4607929230769231,,
0.6597,0.306764,2.04298,0.45781975,,
0.6617,0.30918,2.05296,0.4547067499999999,,
0.6637,0.308118,2.06294,0.4510741538461538,,
0.6657,0.307099,2.07292,0.4472830833333333,,
0.6677,0.309878,2.0829,0.4436419166666666,,
0.6702,0.309807,2.09288,0.4402293636363637,,
0.6732,0.313442,2.10286,0.43696825,,
0.6762,0.312065,2.11284,0.4340114166666666,,
0.6792,0.313727,2.12282,0.4301093636363636,,
0.6822,0.318601,2.13281,0.4260977499999999,,
0.6852,0.316935,2.14279,0.422372,,
0.6882,0.316817,2.15277,0.4194048181818182,,
0.6912,0.317473,2.16275,0.4161421818181818,,
0.6942,0.31943,2.17273,0.4128621818181818,,
0.6972,0.320477,2.18271,0.4097733636363636,,
0.7002,0.323166,2.19269,0.4066541818181818,,
0.702,0.322715,2.20267,0.4041433,,
0.704,0.324259,2.21265,0.4013453636363637,,
0.706,0.325823,2.22263,0.3983081999999999,,
0.708,0.327294,2.23262,0.3953631818181817,,
0.71,0.328334,2.2426,0.392263,,
0.712,0.330864,2.25258,0.3899261,,
0.714,0.330654,2.26256,0.3874029,,
0.716,0.331674,2.27254,0.3846552,,
0.718,0.334067,2.28252,0.3820602999999999,,
0.72,0.334933,2.2925,0.3796136,,
0.722,0.335565,2.30248,0.3777929,,
0.724,0.337134,2.31246,0.3762348,,
0.726,0.339006,2.32244,0.375481,,
0.728,0.340686,2.33242,0.375585,,
0.73,0.339565,2.34241,0.3760489999999999,,
0.732,0.342911,2.35239,0.3766173333333333,,
0.734,0.343455,2.36237,0.3769327,,
0.736,0.343783,2.37235,0.3768721111111112,,
0.738,0.345292,2.38233,0.3769623333333334,,
0.74,0.34435,2.39231,0.3772013333333333,,
0.742,0.349551,2.40229,0.378274,,
0.744,0.348105,2.41227,0.3792668888888889,,
0.746,0.349685,2.42225,0.3802384444444444,,
0.748,0.350797,2.43223,0.381264375,,
0.7505,0.351392,2.44222,0.3827606666666666,,
0.7535,0.353369,2.4522,0.384343,,
0.7565,0.35562,2.46218,0.38589425,,
0.7595,0.355537,2.47216,0.3879058888888889,,
0.7625,0.357535,2.48214,0.389723,,
0.7655,0.357589,2.49212,0.3914793749999999,,
0.7685,0.359202,2.5021,0.3933377777777778,,
0.7715,0.359626,2.51208,0.395159,,
0.7745,0.361499,2.52206,0.397321375,,
0.7775,0.36283,2.53204,0.3993403750000001,,
0.781,0.364041,2.54203,0.4017119999999999,,
0.785,0.36655,2.55201,0.4038385,,
0.789,0.368136,2.56199,0.4053796249999999,,
0.793,0.368922,2.57197,0.40739875,,
0.797,0.369904,2.58195,0.4093759999999999,,
0.8015,0.37363,2.59193,0.4096524285714285,,
0.8065,0.37312,2.60191,0.4130675,,
0.8115,0.37448,2.61189,0.4152707142857142,,
0.8165,0.376794,2.62187,0.4162275,,
0.822,0.379163,2.63185,0.4174487142857143,,
0.828,0.379566,2.64183,0.4192921249999999,,
0.835,0.379617,2.65182,0.4182062857142857,,
0.843,0.380363,2.6618,0.413957625,,
0.851,0.377365,2.67178,0.4052694285714285,,
0.859,0.370298,2.68176,0.3828158571428571,,
0.871,0.366689,2.69174,0.3239481428571428,,
0.883,0.353368,2.70172,0.2459511428571428,,
0.894,0.342254,2.7117,0.1987638571428571,,
0.904,0.328396,2.72168,0.191623,,
0.914,0.323247,2.73166,0.1849737142857142,,
0.924,0.309228,2.74164,0.1751361428571428,,
0.933,0.302725,2.75163,0.169654,,
0.941,0.289307,2.76161,0.1690672857142857,,
0.949,0.279171,2.77159,0.1706988333333333,,
0.957,0.271928,2.78157,0.1724122857142857,,
0.964,0.265323,2.79155,0.1739687142857142,,
0.97,0.259981,2.80153,0.1753181666666666,,
0.976,0.256649,2.81151,0.1776008571428571,,
0.982,0.252348,2.82149,0.1798421666666666,,
0.988,0.24968,2.83147,0.1825978571428571,,
0.994,0.248187,2.84145,0.1850193333333333,,
1.0,0.24202,2.85144,0.1869398571428571,,
1.006,0.242471,2.86142,0.1882688333333333,,
1.012,0.239114,2.8714,0.1891368333333333,,
1.018,0.240097,2.88138,0.1895033333333333,,
1.0235,0.239855,2.89136,0.1898754285714285,,
1.0285,0.236998,2.90134,0.1907695,,
1.0335,0.241641,2.91132,0.1919485,,
1.0385,0.242228,2.9213,0.1931433333333333,,
1.0435,0.244289,2.93128,0.1947201666666666,,
1.0485,0.247132,2.94126,0.1962333333333333,,
1.0535,0.249736,2.95125,0.1980016666666666,,
1.0585,0.252345,2.96123,0.1998016666666666,,
1.0635,0.256958,2.97121,0.2018008333333333,,
1.0685,0.260555,2.98119,0.203816,,
1.0735,0.263763,2.99117,0.2059823333333333,,
