Wavelength (µm) raw,ALH-271 spot f raw,Wavelength (µm) bin avg,ALH-271 spot f bin avg,Wavelength (µm) cubic spline of bin avg,ALH-271 spot f cubic spline of bin avg
0.3,0.057685,0.44602,0.15241,0.44602,0.15241
0.305,0.060534,0.456,0.155415,0.45600098039215686,0.15541530754562333
0.31,0.062072,0.46598,0.15853499999999998,0.46598196078431375,0.1585355974890071
0.315,0.064111,0.47596,0.16142,0.47596294117647064,0.16142080152927515
0.32,0.06848,0.48595,0.16443000000000002,0.4859439215686275,0.1644277129329509
0.325,0.071183,0.49593,0.167925,0.4959249019607843,0.167924097991556
0.33,0.074777,0.50591,0.169385,0.5059058823529412,0.1693833288761451
0.335,0.078965,0.51589,0.17598999999999998,0.5158868627450981,0.17598804423639966
0.34,0.082435,0.52587,0.17989,0.525867843137255,0.17988944229772516
0.345,0.086173,0.53585,0.181745,0.5358488235294118,0.18174491479242438
0.35,0.090999,0.54583,0.182115,0.5458298039215687,0.18211497634578172
0.355,0.094995,0.55581,0.184595,0.5558107843137255,0.1845952366600196
0.36,0.099534,0.56579,0.187135,0.5657917647058823,0.18713532009510997
0.365,0.10473,0.57577,0.18843500000000002,0.5757727450980392,0.18843534851418986
0.37,0.10834,0.58576,0.18976500000000002,0.5857537254901961,0.189764366337655
0.375,0.11285,0.59574,0.190345,0.595734705882353,0.19034477266098748
0.38,0.11743,0.60572,0.19095499999999999,0.6057156862745099,0.19095463349164715
0.385,0.1209,0.6157,0.19178499999999998,0.6156966666666667,0.19178483321807138
0.39,0.12473,0.62568,0.191965,0.6256776470588236,0.19196495630306712
0.395,0.12808,0.63566,0.19227,0.6356586274509805,0.1922699705358549
0.4,0.13209,0.64564,0.19221,0.6456396078431372,0.192210012071045
0.405,0.1359,0.65562,0.19174,0.6556205882352941,0.19173996608624838
0.41,0.13773,0.6656,0.19135999999999997,0.665601568627451,0.19136000924569194
0.415,0.14179,0.67558,0.19161499999999998,0.6755825490196079,0.19161499114101638
0.42,0.14447,0.68556,0.19097,0.6855635294117648,0.19096961421630274
0.425,0.14588,0.69555,0.189865,0.6955445098039216,0.18986546712172422
0.43,0.14743,0.70553,0.18925,0.7055254901960785,0.1892503027060506
0.435,0.1492,0.71551,0.18825,0.7155064705882352,0.1882504653768977
0.44,0.15044,0.72549,0.18642999999999998,0.7254874509803921,0.1864306450672587
0.445,0.15162,0.73547,0.18351,0.735468431372549,0.18351044021939947
0.45,0.1532,0.74545,0.1805,0.7454494117647059,0.18050023938015433
0.455,0.15445,0.75543,0.17496,0.7554303921568628,0.17495974051641158
0.46,0.15638,0.76541,0.168015,0.7654113725490197,0.16801404014569876
0.465,0.15772,0.77539,0.160935,0.7753923529411766,0.16093321890216264
0.47,0.15935,0.78537,0.15266000000000002,0.7853733333333334,0.15265703788438895
0.475,0.1607,0.79536,0.143365,0.7953543137254901,0.1433705002104285
0.48,0.16214,0.80534,0.13374999999999998,0.805335294117647,0.13375434745428513
0.485,0.16366,0.81532,0.12498999999999999,0.8153162745098039,0.12499320784017515
0.49,0.1652,0.8253,0.116525,0.8252972549019608,0.11652722311372311
0.495,0.1672,0.83528,0.10899,0.8352782352941177,0.10899125160910997
0.5,0.16865,0.84526,0.10228999999999999,0.8452592156862746,0.1022904959024311
0.505,0.16756,0.85524,0.0965045,0.8552401960784315,0.09650439905365106
0.51,0.17121,0.86522,0.0918205,0.8652211764705883,0.09181996404425759
0.515,0.17481,0.8752,0.08738950000000001,0.875202156862745,0.08738863100918629
0.52,0.17717,0.88518,0.08383550000000001,0.8851831372549019,0.08383445499106852
0.525,0.17934,0.89517,0.08077200000000001,0.8951641176470588,0.08077348857086372
0.53,0.18044,0.90515,0.07888,0.9051450980392157,0.07888070346316098
0.535,0.18155,0.91513,0.077665,0.9151260784313726,0.07766541957681913
0.54,0.18194,0.92511,0.076881,0.9251070588235295,0.07688108668778948
0.545,0.18169,0.93509,0.07707449999999999,0.9350880392156864,0.0770744072631281
0.55,0.18254,0.94507,0.077769,0.9450690196078432,0.0777688949085763
0.555,0.18381,0.95505,0.07923050000000001,0.95505,0.07923050000000001
0.56,0.18538,0.96503,0.0812345,0.9650309803921568,0.08123474168659048
0.565,0.18682,0.97501,0.0840225,0.9750119607843137,0.08402305375258745
0.57,0.18745,0.98499,0.086661,0.9849929411764706,0.08666175006406034
0.575,0.18798,0.99497,0.0895745,0.9949739215686275,0.0895759371566249
0.58,0.18889,1.00496,0.0939735,1.0049549019607844,0.09397107350627865
0.585,0.18952,1.01494,0.0988555,1.0149358823529413,0.09885336604973173
0.59,0.19001,1.02492,0.10436,1.0249168627450982,0.1043582018130664
0.595,0.19022,1.0349,0.110025,1.0348978431372549,0.11002382104038082
0.6,0.19047,1.04488,0.11542,1.0448788235294117,0.1154193352176791
0.605,0.19097,1.05486,0.12116,1.0548598039215686,0.12115989405696562
0.61,0.19094,1.06484,0.126,1.0648407843137255,0.12600035612323285
0.615,0.19169,1.07482,0.130345,1.0748217647058824,0.13034571378115922
0.62,0.19188,1.0848,0.13405,1.0848027450980393,0.13405095486556742
0.625,0.1918,1.09478,0.13733,1.0947837254901962,0.13733113185594628
0.63,0.19213,1.10477,0.14004,1.104764705882353,0.14003874695254276
0.635,0.19201,1.11475,0.142175,1.1147456862745098,0.14217411541057554
0.64,0.19253,1.12473,0.144055,1.1247266666666667,0.14405449999243167
0.645,0.19217,1.13471,0.1452,1.1347076470588235,0.14519975454033335
0.65,0.19225,1.14469,0.14632499999999998,1.1446886274509804,0.1463248420360939
0.655,0.19177,1.15467,0.14735,1.1546696078431373,0.14734996799213262
0.66,0.19171,1.16465,0.147965,1.1646505882352942,0.1479650302487648
0.665,0.19132,1.17463,0.14856000000000003,1.174631568627451,0.1485601198758581
0.67,0.1914,1.18461,0.14941500000000002,1.184612549019608,0.14941520080020743
0.675,0.19115,1.19459,0.15012,1.1945935294117647,0.15012027318801074
0.68,0.19208,1.20458,0.15102500000000002,1.2045745098039216,0.1510244767174338
0.685,0.19122,1.21456,0.151935,1.2145554901960784,0.15193460908471357
0.69,0.19072,1.22454,0.15262,1.2245364705882353,0.15261986782902698
0.695,0.18999,1.23452,0.15285500000000002,1.2345174509803922,0.15285489770514457
0.7,0.18974,1.2445,0.1535,1.2444984313725491,0.15349989564355548
0.705,0.1892,1.25448,0.154005,1.254479411764706,0.1540049767924976
0.71,0.1893,1.26446,0.15439,1.264460392156863,0.15439001694195054
0.715,0.18837,1.27444,0.15487499999999998,1.2744413725490196,0.15487506761698777
0.72,0.18813,1.28442,0.15540500000000002,1.2844223529411765,0.15540515260193158
0.725,0.18722,1.2944,0.15613,1.2944033333333334,0.15613022860024547
0.73,0.18564,1.30438,0.15671000000000002,1.3043843137254902,0.1567102290243552
0.735,0.18414,1.31437,0.15731,1.3143652941176471,0.15730965380559153
0.74,0.18288,1.32435,0.158055,1.324346274509804,0.15805478851492497
0.745,0.18143,1.33433,0.15845,1.334327254901961,0.1584498844578551
0.75,0.17957,1.34431,0.15885500000000002,1.3443082352941178,0.15885497291089717
0.755,0.17739,1.35429,0.158765,1.3542892156862745,0.15876500688342868
0.76,0.17253,1.36427,0.158905,1.3642701960784314,0.1589050068208371
0.765,0.16979,1.37425,0.159285,1.3742511764705883,0.15928503051786944
0.77,0.16624,1.38423,0.15936499999999998,1.3842321568627451,0.15936499939001422
0.775,0.16308,1.39421,0.1591,1.394213137254902,0.15909974761451706
0.78,0.15879,1.40419,0.158165,1.404194117647059,0.1581648406533471
0.785,0.15483,1.41418,0.15828,1.4141750980392158,0.15828005482683735
0.79,0.15049,1.42416,0.15772,1.4241560784313727,0.15772019703692056
0.795,0.14595,1.43414,0.15733000000000003,1.4341370588235294,0.1573302159627369
0.8,0.14078,1.44412,0.156215,1.4441180392156863,0.15621521252549245
0.805,0.13604,1.4541,0.15533,1.4540990196078432,0.1553300923841475
0.81,0.13146,1.46408,0.154175,1.46408,0.154175
0.815,0.12724,1.47406,0.152845,1.474060980392157,0.15284486163849592
0.82,0.12274,1.48404,0.151395,1.4840419607843138,0.15139471911567404
0.825,0.11866,1.49402,0.14997500000000002,1.4940229411764707,0.14997456296695233
0.83,0.11439,1.504,0.14838,1.5040039215686276,0.14837933837792494
0.835,0.11083,1.51399,0.14666,1.5139849019607845,0.1466608796095919
0.84,0.10715,1.52397,0.144845,1.5239658823529412,0.14484583683134497
0.845,0.10359,1.53395,0.14271499999999998,1.533946862745098,0.14271562860768022
0.85,0.10099,1.54393,0.14083,1.543927843137255,0.14083043618705451
0.855,0.097655,1.55391,0.138655,1.5539088235294118,0.1386552483827222
0.86,0.095354,1.56389,0.136515,1.5638898039215687,0.1365150490911717
0.865,0.092999,1.57387,0.13383499999999998,1.5738707843137256,0.1338348146634092
0.87,0.090642,1.58385,0.13182,1.5838517647058825,0.13181961930934558
0.875,0.088341,1.59383,0.12944,1.5938327450980394,0.1294393906943274
0.88,0.086438,1.60381,0.12747,1.6038137254901963,0.12746923996706505
0.885,0.084687,1.6138,0.12531,1.613794705882353,0.12531107396554295
0.89,0.082984,1.62378,0.12329499999999999,1.6237756862745099,0.12329603070360287
0.895,0.081472,1.63376,0.12075,1.6337566666666667,0.12075070687646548
0.9,0.080072,1.64374,0.118925,1.6437376470588236,0.11892553297883915
0.905,0.079474,1.65372,0.1164,1.6537186274509805,0.11640026000688643
0.91,0.078286,1.6637,0.11518,1.6636996078431374,0.11518005551138683
0.915,0.077869,1.67368,0.113115,1.6736805882352943,0.11311486363011643
0.92,0.077461,1.68366,0.11099500000000001,1.683661568627451,0.11099470331811677
0.925,0.077081,1.69364,0.109315,1.6936425490196079,0.10931460771376038
0.93,0.076681,1.70362,0.10772,1.7036235294117648,0.1077193656020874
0.935,0.076998,1.7136,0.10575000000000001,1.7136045098039216,0.10574910344524788
0.94,0.077151,1.72359,0.10386000000000001,1.7235854901960785,0.10386083341375715
0.945,0.077508,1.73357,0.1021,1.7335664705882354,0.10210055985232906
0.95,0.07803,1.74355,0.10063,1.7435474509803923,0.10063038662217494
0.955,0.078737,1.75353,0.0990455,1.7535284313725492,0.09904573977120168
0.96,0.079724,1.76351,0.0976455,1.763509411764706,0.09764557885860399
0.965,0.080457,1.77349,0.09627,1.7734903921568628,0.09626994304730752
0.97,0.082012,1.78347,0.094833,1.7834713725490197,0.09483282093455007
0.975,0.083375,1.79345,0.0936375,1.7934523529411766,0.09363720765583039
0.98,0.08467,1.80343,0.0923325,1.8034333333333334,0.09233208595128249
0.985,0.086661,1.81341,0.0912505,1.8134143137254903,0.09125008413434522
0.99,0.088489,1.8234,0.090286,1.8233952941176472,0.0902864942785832
0.995,0.09066,1.83338,0.0892185,1.8333762745098041,0.089218850126774
1.0,0.092736,1.84336,0.0884405,1.8433572549019608,0.08844070267421361
1.005,0.095211,1.85334,0.0877415,1.8533382352941177,0.08774159650810501
1.01,0.097521,1.86332,0.08710899999999999,1.8633192156862746,0.08710908445341009
1.015,0.10019,1.8733,0.08597250000000001,1.8733001960784315,0.08597249091371158
1.02,0.103,1.88328,0.0860745,1.8832811764705883,0.08607447890649335
1.025,0.10572,1.89326,0.085239,1.8932621568627452,0.08523877897051496
1.03,0.10851,1.90324,0.0845285,1.9032431372549021,0.08452838433606498
1.035,0.11154,1.91322,0.084348,1.913224117647059,0.08434792653564112
1.04,0.11407,1.92321,0.0840785,1.923205098039216,0.0840786321608476
1.045,0.11677,1.93319,0.0838395,1.9331860784313726,0.08383960628520579
1.05,0.11998,1.94317,0.08349200000000001,1.9431670588235295,0.08349212035120664
1.055,0.12234,1.95315,0.083087,1.9531480392156864,0.08308706944126378
1.06,0.12485,1.96313,0.0829125,1.9631290196078433,0.08291249179280413
1.065,0.12715,1.97311,0.0831185,1.9731100000000001,0.0831185
1.07,0.12933,1.98309,0.0830635,1.983090980392157,0.08306349165065151
1.075,0.13136,1.99307,0.083071,1.993071960784314,0.08307101648797324
1.08,0.13319,2.00305,0.08325199999999999,2.0030529411764704,0.08325209280898119
1.085,0.13491,2.01303,0.08359549999999999,2.0130339215686273,0.08359559038249441
1.09,0.13645,2.02301,0.083758,2.023014901960784,0.0837581389166151
1.095,0.13821,2.033,0.084207,2.032995882352941,0.08420680522053463
1.1,0.13943,2.04298,0.084593,2.042976862745098,0.08459289541308318
1.105,0.14065,2.05296,0.08496300000000001,2.052957843137255,0.08496289947554615
1.11,0.14165,2.06294,0.0855095,2.0629388235294117,0.08550943444131812
1.115,0.1427,2.07292,0.086007,2.0729198039215686,0.08600699130959502
1.12,0.14383,2.0829,0.0865055,2.0829007843137255,0.08650555207289282
1.125,0.14428,2.09288,0.0872735,2.0928817647058824,0.08727362498218563
1.13,0.14502,2.10286,0.0879365,2.1028627450980393,0.08793672089627647
1.135,0.14538,2.11284,0.088814,2.112843725490196,0.08881426224202647
1.14,0.14615,2.12282,0.08936150000000001,2.122824705882353,0.08936181193314108
1.145,0.1465,2.13281,0.09024,2.13280568627451,0.09023959933405334
1.15,0.14699,2.14279,0.09114649999999999,2.142786666666667,0.09114617160925306
1.155,0.14771,2.15277,0.09216949999999999,2.1527676470588237,0.09216928106662825
1.16,0.1478,2.16275,0.0929955,2.16274862745098,0.09299538316672253
1.165,0.14813,2.17273,0.094041,2.172729607843137,0.0940409493964966
1.17,0.14827,2.18271,0.09544150000000001,2.182710588235294,0.09544157881493982
1.175,0.14885,2.19269,0.096604,2.192691568627451,0.09660416541623816
1.18,0.14954,2.20267,0.0977435,2.2026725490196077,0.09774384715581796
1.185,0.14929,2.21265,0.09924,2.2126535294117646,0.09924050184460409
1.19,0.14985,2.22263,0.100485,2.2226345098039215,0.10048553720554441
1.195,0.15039,2.23262,0.10174,2.2326154901960784,0.10173940267865399
1.2,0.15071,2.2426,0.10313,2.2425964705882353,0.1031294854476008
1.205,0.15134,2.25258,0.10457,2.252577450980392,0.10456965566613853
1.21,0.1516,2.26256,0.10591,2.262558431372549,0.10590976540806836
1.215,0.15227,2.27254,0.1075,2.272539411764706,0.10749991326245008
1.22,0.15254,2.28252,0.10883000000000001,2.282520392156863,0.10883005427126995
1.225,0.1527,2.2925,0.110305,2.2925013725490198,0.11030519513331664
1.23,0.1527,2.30248,0.1117,2.3024823529411766,0.111700366252049
1.235,0.15301,2.31246,0.11333,2.3124633333333335,0.11333048178610887
1.24,0.15347,2.32244,0.11458,2.32244431372549,0.11458056894895338
1.245,0.15353,2.33242,0.116085,2.332425294117647,0.11608582633966485
1.25,0.15371,2.34241,0.117575,2.3424062745098038,0.117574464944043
1.255,0.1543,2.35239,0.11896,2.3523872549019607,0.11895963432020372
1.26,0.15404,2.36237,0.120465,2.3623682352941175,0.12046466070636624
1.265,0.15474,2.37235,0.12265000000000001,2.3723492156862744,0.12264983772515058
1.27,0.15488,2.38233,0.12437000000000001,2.3823301960784313,0.12437003019292583
1.275,0.15487,2.39231,0.125885,2.392311176470588,0.1258851760145025
1.28,0.15519,2.40229,0.127375,2.402292156862745,0.12737532541246177
1.285,0.15562,2.41227,0.12897,2.412273137254902,0.12897054669544775
1.29,0.15592,2.42225,0.13070500000000002,2.422254117647059,0.1307056304163327
1.295,0.15634,2.43223,0.13200499999999998,2.432235098039216,0.13200564034669598
1.3,0.15669,2.44222,0.13328,2.4422160784313727,0.13327953669465895
1.305,0.15673,2.4522,0.134375,2.452197058823529,0.13437466506700818
1.31,0.15713,2.46218,0.13566,2.462178039215686,0.1356597220285126
1.315,0.15749,2.47216,0.137065,2.472159019607843,0.13706487483630214
1.32,0.15778,2.48214,0.13818,2.48214,0.13818
1.325,0.15833,2.49212,0.139215,2.4921209803921567,0.13921509634264714
1.33,0.1582,2.5021,0.14026833333333333,2.5021019607843136,0.14026858743604265
1.335,0.1587,2.51208,0.14151624999999998,2.5120829411764705,0.14151647094869324
1.34,0.15884,2.52206,0.14179375,2.5220639215686274,0.14179386127165866
1.345,0.15887,2.53204,0.14234875000000002,2.5320449019607842,0.1423490523112231
1.35,0.15875,2.54203,0.14266500000000001,2.542025882352941,0.14266505446612918
1.355,0.15878,2.55201,0.14251,2.552006862745098,0.14250987572976945
1.36,0.15857,2.56199,0.143465,2.561987843137255,0.1434647947544728
1.365,0.15924,2.57197,0.14389749999999998,2.571968823529412,0.14389750370034815
1.37,0.15911,2.58195,0.14371375,2.5819498039215687,0.14371375152402346
1.375,0.15946,2.59193,0.14418714285714287,2.5919307843137256,0.1441872380035105
1.38,0.15888,2.60191,0.1455675,2.601911764705882,0.14556764077092635
1.385,0.15985,2.61189,0.14543714285714285,2.611892745098039,0.14543696516339893
1.39,0.15946,2.62187,0.14526750000000002,2.621873725490196,0.14526783157107315
1.395,0.15874,2.63185,0.14604142857142857,2.6318547058823527,0.14604091303701636
1.4,0.1583,2.64183,0.14351499999999998,2.6418356862745096,0.14351398753056885
1.405,0.15803,2.65182,0.1433485714285714,2.6518166666666665,0.14334852948436355
1.41,0.15847,2.6618,0.1432075,2.6617976470588234,0.14320741644934182
1.415,0.15809,2.67178,0.14332714285714285,2.6717786274509803,0.14332736397601586
1.42,0.15778,2.68176,0.1398257142857143,2.681759607843137,0.1398258741012033
1.425,0.15766,2.69174,0.13651,2.691740588235294,0.13650984824366919
1.43,0.15762,2.70172,0.13393857142857143,2.701721568627451,0.133938053439125
1.435,0.15704,2.7117,0.12920142857142858,2.711702549019608,0.12919985269097253
1.44,0.15648,2.72168,0.12269428571428571,2.7216835294117647,0.12269224920498657
1.445,0.15595,2.73166,0.11893428571428573,2.7316645098039216,0.11893356544165307
1.45,0.15547,2.74164,0.11755142857142856,2.7416454901960785,0.11754961778165023
1.455,0.15519,2.75163,0.11273285714285715,2.7516264705882354,0.11273421316257752
1.46,0.15439,2.76161,0.1109257142857143,2.7616074509803923,0.11092603022638088
1.465,0.15396,2.77159,0.10896,2.7715884313725487,0.10896039868574964
1.47,0.15306,2.78157,0.10656428571428571,2.7815694117647056,0.10656438595824477
1.475,0.15263,2.79155,0.10539285714285716,2.7915503921568625,0.10539280361621715
1.48,0.15184,2.80153,0.103755,2.8015313725490194,0.10375482418165384
1.485,0.15095,2.81151,0.10286714285714285,2.8115123529411763,0.10286688327362838
1.49,0.15049,2.82149,0.10148833333333333,2.821493333333333,0.10148795996255285
1.495,0.14946,2.83147,0.10082871428571429,2.83147431372549,0.10082848001544319
1.5,0.14881,2.84145,0.10023616666666668,2.841455294117647,0.10023591702049793
1.505,0.14795,2.85144,0.10002385714285714,2.851436274509804,0.10002385316075031
1.51,0.14706,2.86142,0.0999375,2.8614172549019607,0.09993762850091596
1.515,0.14626,2.8714,0.09920933333333333,2.8713982352941176,0.09920943677142338
1.52,0.1453,2.88138,0.09900766666666667,2.8813792156862745,0.0990076653013309
1.525,0.14439,2.89136,0.09896742857142857,2.8913601960784314,0.09896742443865612
1.53,0.14331,2.90134,0.09861033333333334,2.9013411764705883,0.09861028995415119
1.535,0.14212,2.91132,0.09831833333333333,2.911322156862745,0.09831827607385334
1.54,0.14131,2.9213,0.09814300000000002,2.9213031372549016,0.0981430081288664
1.545,0.14035,2.93128,0.09813833333333333,2.9312841176470585,0.0981381772100292
1.55,0.1391,2.94126,0.09745716666666666,2.9412650980392154,0.09745687519867267
1.555,0.13821,2.95125,0.09719866666666667,2.9512460784313723,0.09719872843866376
1.56,0.13691,2.96123,0.09687733333333333,2.961227058823529,0.0968774921559916
1.565,0.13612,2.97121,0.09635016666666667,2.971208039215686,0.09635021232242798
1.57,0.1343,2.98119,0.0963976,2.981189019607843,0.0963975971620989
1.575,0.13337,2.99117,0.09581133333333332,2.99117,0.0958113333333333
1.58,0.13246,,,,
1.585,0.13118,,,,
1.59,0.1298,,,,
1.595,0.12908,,,,
1.6,0.12825,,,,
1.605,0.12669,,,,
1.61,0.1258,,,,
1.615,0.12482,,,,
1.62,0.12383,,,,
1.625,0.12276,,,,
1.63,0.12142,,,,
1.635,0.12008,,,,
1.64,0.11931,,,,
1.645,0.11854,,,,
1.65,0.11683,,,,
1.655,0.11597,,,,
1.66,0.11586,,,,
1.665,0.1145,,,,
1.67,0.11368,,,,
1.675,0.11255,,,,
1.68,0.1116,,,,
1.685,0.11039,,,,
1.69,0.10975,,,,
1.695,0.10888,,,,
1.7,0.1083,,,,
1.705,0.10714,,,,
1.71,0.10623,,,,
1.715,0.10527,,,,
1.72,0.10434,,,,
1.725,0.10338,,,,
1.73,0.10248,,,,
1.735,0.10172,,,,
1.74,0.10095,,,,
1.745,0.10031,,,,
1.75,0.099503,,,,
1.755,0.098588,,,,
1.76,0.09795,,,,
1.765,0.097341,,,,
1.77,0.096631,,,,
1.775,0.095909,,,,
1.78,0.095133,,,,
1.785,0.094533,,,,
1.79,0.093971,,,,
1.795,0.093304,,,,
1.8,0.092665,,,,
1.805,0.092,,,,
1.81,0.091537,,,,
1.815,0.090964,,,,
1.82,0.090281,,,,
1.825,0.090291,,,,
1.83,0.089567,,,,
1.835,0.08887,,,,
1.84,0.088391,,,,
1.845,0.08849,,,,
1.85,0.087829,,,,
1.855,0.087654,,,,
1.86,0.087205,,,,
1.865,0.087013,,,,
1.87,0.085626,,,,
1.875,0.086319,,,,
1.88,0.086553,,,,
1.885,0.085596,,,,
1.89,0.085352,,,,
1.895,0.085126,,,,
1.9,0.084436,,,,
1.905,0.084621,,,,
1.91,0.084589,,,,
1.915,0.084107,,,,
1.92,0.083971,,,,
1.925,0.084186,,,,
1.93,0.083796,,,,
1.935,0.083883,,,,
1.94,0.083557,,,,
1.945,0.083427,,,,
1.95,0.083164,,,,
