Wavelength (µm) raw,Sanidine gds19.19863 raw,Wavelength (µm) bin avg,Sanidine gds19.19863 bin avg,Wavelength (µm) cubic spline of bin avg,Sanidine gds19.19863 cubic spline of bin avg
0.2586,0.118477,0.44602,0.6946526666666667,0.44602,0.6946526666666667
0.2636,0.136973,0.456,0.7002876,0.4578753521126761,0.7015179886111612
0.2686,0.171162,0.46598,0.706048,0.4697307042253521,0.7072782623817115
0.2731,0.202837,0.47596,0.7086116,0.4815860563380282,0.7098979908020817
0.2771,0.247255,0.48595,0.7109578,0.4934414084507043,0.7125029236986414
0.2811,0.287344,0.49593,0.7128374,0.5052967605633804,0.7135890426565754
0.2851,0.333398,0.50591,0.7136697999999999,0.5171521126760563,0.715446607343688
0.2891,0.381518,0.51589,0.7153615999999999,0.5290074647887324,0.7151582726613117
0.2931,0.422253,0.52587,0.7152088000000001,0.5408628169014085,0.716336038018945
0.2971,0.450776,0.53585,0.7155874000000001,0.5527181690140845,0.71624252982287
0.3011,0.477869,0.54583,0.7167916,0.5645735211267606,0.716306771950407
0.3051,0.49551,0.55581,0.7159676000000001,0.5764288732394367,0.7179592148375407
0.3091,0.507645,0.56579,0.7164204,0.5882842253521128,0.720541016110048
0.3131,0.521427,0.57577,0.717802,0.6001395774647887,0.7200586842513117
0.3171,0.533378,0.58576,0.7202923999999999,0.6119949295774648,0.7205038543727075
0.3211,0.538592,0.59574,0.7203282,0.6238502816901409,0.7216010182548762
0.3251,0.548815,0.60572,0.7199972857142857,0.635705633802817,0.7240058560072942
0.3291,0.550999,0.6157,0.7208781666666667,0.6475609859154929,0.7253411939611193
0.3331,0.56147,0.62568,0.7218688333333333,0.659416338028169,0.7274595480920303
0.3371,0.565428,0.63566,0.7239978,0.6712716901408451,0.7299681903473952
0.3411,0.569648,0.64564,0.7251264000000001,0.6831270422535212,0.7309076677830988
0.3531,0.601682,0.65562,0.7266313999999999,0.6949823943661972,0.7327430922956762
0.3571,0.606264,0.6656,0.7288834000000001,0.7068377464788733,0.7347968664170325
0.3606,0.609456,0.67558,0.7305023333333333,0.7186930985915494,0.7352743803139147
0.3636,0.61453,0.68556,0.7310949999999999,0.7305484507042255,0.7373902448388825
0.3666,0.616139,0.69555,0.73287225,0.7424038028169014,0.7392067408660494
0.3696,0.617692,0.70553,0.7347252,0.7542591549295775,0.7407666808989649
0.3726,0.620553,0.71551,0.7348888,0.7661145070422536,0.7426398926769394
0.3756,0.619774,0.72549,0.736574,0.7779698591549296,0.7447955158052014
0.3786,0.620645,0.73547,0.7381004000000001,0.7898252112676056,0.746066183707429
0.3811,0.625069,0.74545,0.7396652499999999,0.8016805633802817,0.7478182140366992
0.3831,0.630206,0.75543,0.7409172500000001,0.8135359154929578,0.7494090945881066
0.3851,0.63518,0.76541,0.7425069999999999,0.8253912676056339,0.7492215746343847
0.3871,0.637018,0.77539,0.7443956666666667,0.8372466197183099,0.7473566850472567
0.3891,0.641803,0.78537,0.7456626666666667,0.849101971830986,0.7516009249627283
0.3911,0.64518,0.79536,0.7467010000000001,0.8609573239436621,0.757646089992959
0.3931,0.648527,0.80534,0.748472,0.8728126760563382,0.7570963411183268
0.3951,0.651469,0.81532,0.7495115,0.8846680281690141,0.7623880808019097
0.3971,0.652598,0.8253,0.749233,0.8965233802816902,0.7623845749467453
0.3991,0.653933,0.83528,0.747569,0.9083787323943663,0.763047521762904
0.4011,0.655671,0.84526,0.748854,0.9202340845070422,0.7672640477155973
0.4031,0.658234,0.85524,0.756212,0.9320894366197183,0.7669591697721692
0.4051,0.659422,0.8752,0.75766,0.9439447887323944,0.7691888426512516
0.4071,0.661896,0.88518,0.762542,0.9558001408450705,0.7734326057598204
0.4091,0.663131,0.89517,0.762363,0.9676554929577466,0.7739086232866917
0.4111,0.665346,0.90515,0.763199,0.9795108450704226,0.7753692154765686
0.4128,0.669311,0.91513,0.763871,0.9913661971830987,0.7773000384818854
0.4158,0.670047,0.92511,0.769538,1.0032215492957748,0.780583737280721
0.4188,0.671836,0.93509,0.765942,1.0150769014084509,0.7817102296482593
0.4218,0.674848,0.94507,0.7698065000000001,1.026932253521127,0.7842187237844841
0.4248,0.678332,0.95505,0.773268,1.0387876056338028,0.7872179621170833
0.4278,0.67939,0.96503,0.774259,1.0506429577464789,0.7883303656439575
0.4308,0.684424,0.97501,0.773595,1.062498309859155,0.7890730016874407
0.4338,0.686671,0.98499,0.777531,1.074353661971831,0.7904820401364566
0.4368,0.688485,0.99497,0.777315,1.086209014084507,0.7920977315351209
0.4398,0.688942,1.00496,0.7811874999999999,1.0980643661971832,0.7936575227318329
0.4428,0.692617,1.01494,0.7817045,1.1099197183098592,0.7953387398692126
0.4458,0.6944,1.02492,0.7836135,1.1217750704225353,0.7960323115467327
0.4488,0.696941,1.0349,0.786489,1.1336304225352114,0.797930932747077
0.4513,0.697401,1.04488,0.7879075,1.1454857746478875,0.79868564925987
0.4533,0.697882,1.05486,0.7885835,1.1573411267605636,0.7987147261738822
0.4553,0.701111,1.06484,0.7892710000000001,1.1691964788732396,0.7999813325667355
0.4573,0.702517,1.07482,0.790559,1.1810518309859155,0.8018793023607201
0.4593,0.702527,1.0848,0.792025,1.1929071830985916,0.802528673456398
0.4613,0.704519,1.09478,0.792731,1.2047625352112676,0.8035284096175551
0.4633,0.705009,1.10477,0.7954684999999999,1.2166178873239437,0.8053398250575105
0.4653,0.706146,1.11475,0.7949900000000001,1.2284732394366198,0.8064582052190868
0.4673,0.706658,1.12473,0.7966755,1.2403285915492959,0.80684247951724
0.4693,0.707908,1.13471,0.7980395,1.252183943661972,0.8065662357600506
0.4713,0.705627,1.14469,0.7986854999999999,1.264039295774648,0.8079119228017828
0.4733,0.708304,1.15467,0.7985605,1.275894647887324,0.8072721949548655
0.4753,0.708136,1.16465,0.7995025,1.2877500000000002,0.8087427761773927
0.4773,0.71053,1.17463,0.8006905,1.2996053521126762,0.8087225067673534
0.4793,0.710461,1.18461,0.8023685,1.311460704225352,0.8108943684956735
0.4813,0.710466,1.19459,0.802551,1.3233160563380282,0.8099251910863786
0.4833,0.710567,1.20458,0.8035019999999999,1.3351714084507043,0.810209603689178
0.4853,0.710838,1.21456,0.8050474999999999,1.3470267605633803,0.8114859672306015
0.4873,0.710755,1.22454,0.806207,1.3588821126760564,0.8112321687555576
0.4893,0.712163,1.23452,0.8066975000000001,1.3707374647887325,0.8115687152882758
0.4913,0.712695,1.2445,0.8068040000000001,1.3825928169014086,0.8115483308985035
0.4933,0.712561,1.25448,0.806689,1.3944481690140846,0.8133370954993927
0.4953,0.713745,1.26446,0.8079160000000001,1.4063035211267607,0.8127368769870249
0.4973,0.712919,1.27444,0.8071360000000001,1.4181588732394368,0.8131177773795129
0.4993,0.712267,1.28442,0.8087975000000001,1.4300142253521129,0.8159331847444791
0.5013,0.714186,1.2944,0.808196,1.441869577464789,0.8170176806144708
0.5033,0.711952,1.30438,0.8097175,1.453724929577465,0.8161058984045
0.5053,0.713374,1.31437,0.8109884999999999,1.465580281690141,0.816979533274071
0.5073,0.71318,1.32435,0.809821,1.4774356338028172,0.8164166641446476
0.5093,0.715657,1.33433,0.8101165,1.489290985915493,0.8182614606448076
0.5113,0.715624,1.34431,0.811275,1.501146338028169,0.8172867220997536
0.5133,0.716121,1.35429,0.8115555000000001,1.5130016901408452,0.8191278228967546
0.5153,0.714744,1.36427,0.811032,1.5248570422535213,0.8189765740210362
0.5173,0.714549,1.37425,0.81179,1.5367123943661973,0.8208493074378774
0.5193,0.71577,1.38423,0.8116289999999999,1.5485677464788734,0.8207067703227684
0.5213,0.715613,1.39421,0.8133135,1.5604230985915495,0.8224915762970315
0.5233,0.714176,1.40419,0.8129485,1.5722784507042256,0.8223035516116903
0.5253,0.714709,1.41418,0.8125475,1.5841338028169016,0.821864505426772
0.5273,0.716556,1.42416,0.8145355,1.5959891549295777,0.8222021639327631
0.5293,0.71499,1.43414,0.8166545000000001,1.6078445070422538,0.8220224793505702
0.5313,0.714966,1.44412,0.8168835,1.6196998591549296,0.8222146489021067
0.5333,0.714264,1.4541,0.8161160000000001,1.6315552112676057,0.8212827978945346
0.5353,0.716677,1.46408,0.8170455000000001,1.6434105633802818,0.8225154194141555
0.5373,0.71529,1.47406,0.8161339999999999,1.6552659154929579,0.823121975209171
0.5393,0.71674,1.48404,0.817665,1.667121267605634,0.8238647624785705
0.5413,0.716546,1.49402,0.8181645,1.67897661971831,0.8227403656301566
0.5433,0.717687,1.504,0.817287,1.690831971830986,0.8244375616470694
0.5453,0.716986,1.51399,0.819242,1.7026873239436622,0.8284252781001974
0.5473,0.716958,1.52397,0.818898,1.7145426760563383,0.8235763377449001
0.5493,0.715781,1.53395,0.820719,1.7263980281690143,0.8235279773737979
0.5513,0.716926,1.54393,0.8205165000000001,1.7382533802816904,0.8216297828733877
0.5533,0.715262,1.55391,0.8214205,1.7501087323943665,0.8257152069898493
0.5553,0.716458,1.56389,0.822796,1.7619640845070423,0.8263414158640927
0.5573,0.715951,1.57387,0.8221515,1.7738194366197184,0.8237333518219525
0.5593,0.715241,1.58385,0.821853,1.7856747887323945,0.8289439456789416
0.5613,0.716811,1.59383,0.8222985,1.7975301408450706,0.8278072364851488
0.5633,0.716162,1.60381,0.821761,1.8093854929577466,0.8265773173573796
0.5653,0.715394,1.6138,0.822501,1.8212408450704227,0.8252768015121632
0.5673,0.716852,1.62378,0.8217715,1.8330961971830988,0.8252941052489072
0.5693,0.716883,1.63376,0.821353,1.8449515492957749,0.828690969203169
0.5713,0.717349,1.64374,0.8225485,1.856806901408451,0.825349303410708
0.5733,0.717138,1.65372,0.823026,1.868662253521127,0.826362396793008
0.5753,0.717166,1.6637,0.823762,1.880517605633803,0.8234958645165431
0.5773,0.718165,1.67368,0.823502,1.8923729577464792,0.8233861886061148
0.5793,0.719192,1.68366,0.822557,1.904228309859155,0.8227160488150187
0.5813,0.719714,1.69364,0.825669,1.916083661971831,0.8181671306072712
0.5833,0.719511,1.70362,0.828287,1.9279390140845072,0.8222765284150997
0.5853,0.720221,1.7136,0.823694,1.9397943661971833,0.8228467824576647
0.5873,0.720757,1.72359,0.824455,1.9516497183098593,0.8230135122208118
0.5893,0.721259,1.73357,0.820617,1.9635050704225354,0.8256012651868522
0.5913,0.720772,1.74355,0.824139,1.9753604225352115,0.8279030685846996
0.5933,0.719539,1.75353,0.826078,1.9872157746478876,0.8297941687079325
0.5953,0.720429,1.76351,0.826067,1.9990711267605636,0.8320164335093071
0.5973,0.720437,1.77349,0.823693,2.0109264788732397,0.8254349875333062
0.5993,0.720464,1.78347,0.828124,2.022781830985916,0.8316435000682075
0.6011,0.719747,1.79345,0.829175,2.0346371830985914,0.8307928750683198
0.6027,0.719741,1.80343,0.826087,2.0464925352112675,0.8329896588948862
0.6043,0.721342,1.81341,0.826947,2.0583478873239436,0.8311761878664768
0.6059,0.720139,1.8234,0.824762,2.0702032394366197,0.8290366127744215
0.6075,0.720234,1.83338,0.82539,2.0820585915492957,0.8327653870222469
0.6091,0.718946,1.84336,0.828799,2.093913943661972,0.8381577853447402
0.6107,0.719832,1.85334,0.825947,2.105769295774648,0.8365724770458647
0.6123,0.720002,1.86332,0.825653,2.117624647887324,0.8401514022232849
0.6139,0.720707,1.8733,0.826147,2.12948,0.8422671309896558
0.6155,0.72091,1.88328,0.822694,2.141335352112676,0.8384361607728605
0.6171,0.720917,1.89326,0.82355,2.153190704225352,0.8365944507158375
0.6187,0.721117,1.90324,0.823145,2.1650460563380283,0.8355194783778327
0.6203,0.721616,1.91322,0.818266,2.1769014084507043,0.8314188420074544
0.6219,0.722565,1.92321,0.820498,2.1887567605633804,0.8326265125212937
0.6235,0.720425,1.93319,0.82333,2.2006121126760565,0.8275848709150375
0.6251,0.721103,1.94317,0.822477,2.2124674647887326,0.8333958493966224
0.6267,0.722998,1.95315,0.823275,2.2243228169014087,0.8311911323316502
0.6283,0.722514,1.96313,0.825512,2.2361781690140847,0.8303941047502019
0.6299,0.721608,1.97311,0.827582,2.248033521126761,0.8249850480981828
0.6317,0.724379,1.98309,0.828957,2.259888873239437,0.8301311051711763
0.6337,0.723689,1.99307,0.831195,2.271744225352113,0.8321898299583592
0.6357,0.723875,2.00305,0.830904,2.283599577464789,0.8321227934415308
0.6377,0.725067,2.01303,0.825094,2.295454929577465,0.8367149446283283
0.6397,0.722979,2.02301,0.831737,2.307310281690141,0.8273710966002489
0.6417,0.723681,2.033,0.83059,2.319165633802817,0.8374470574755791
0.6437,0.724889,2.04298,0.833427,2.331020985915493,0.8373350501541584
0.6457,0.72557,2.05296,0.831096,2.342876338028169,0.8376455498083452
0.6477,0.725394,2.06294,0.831186,2.354731690140845,0.836055067895629
0.6497,0.726098,2.07292,0.828706,2.366587042253521,0.8386183045449134
0.6517,0.725922,2.0829,0.83334,2.378442394366197,0.8423285631469029
0.6537,0.726597,2.09288,0.838147,2.3902977464788733,0.8375761113121918
0.6557,0.725913,2.10286,0.836369,2.4021530985915494,0.8359188240473953
0.6577,0.727109,2.11284,0.838745,2.4140084507042254,0.83723574289139
0.6597,0.727616,2.12282,0.841353,2.4258638028169015,0.8366878882234488
0.6617,0.728862,2.13281,0.841922,2.4377191549295776,0.8324817802725821
0.6637,0.72814,2.14279,0.837873,2.4495745070422537,0.8295873880693826
0.6657,0.730081,2.15277,0.836584,2.4614298591549297,0.8293124619392467
0.6677,0.729349,2.16275,0.836215,2.473285211267606,0.8299408383311826
0.6702,0.727985,2.17273,0.832405,2.485140563380282,0.8303606516268488
0.6732,0.72988,2.18271,0.831486,2.496995915492958,0.8296865348141365
0.6762,0.730904,2.19269,0.832159,2.508851267605634,0.8278436940380399
0.6792,0.730723,2.20267,0.827313,2.5207066197183097,0.8257794688361634
0.6822,0.729834,2.21265,0.833465,2.5325619718309857,0.8245064595235414
0.6852,0.73156,2.22263,0.831547,2.544417323943662,0.8245014771669914
0.6882,0.731891,2.23262,0.830854,2.556272676056338,0.8243628353602241
0.6912,0.731532,2.2426,0.828049,2.568128028169014,0.8223894045471061
0.6942,0.731856,2.25258,0.824434,2.57998338028169,0.8192537401976445
0.6972,0.733971,2.26256,0.832178,2.591838732394366,0.8178947072940175
0.7002,0.73413,2.27254,0.831883,2.603694084507042,0.8203441113545521
0.702,0.733766,2.28252,0.831221,2.6155494366197183,0.8245501970206754
0.704,0.73413,2.2925,0.839149,2.6274047887323944,0.8274615833115134
0.706,0.735883,2.30248,0.827434,2.6392601408450704,0.8272457809020588
0.708,0.734301,2.31246,0.83178,2.6511154929577465,0.8233992943202445
0.71,0.735546,2.32244,0.838777,2.6629708450704226,0.8158464281637967
0.712,0.735358,2.33242,0.83705,2.6748261971830987,0.8062360681925737
0.714,0.735666,2.34241,0.83761,2.6866815492957747,0.7967320510045856
0.716,0.73425,2.35239,0.836748,2.698536901408451,0.7891148091148968
0.718,0.734598,2.36237,0.835707,2.710392253521127,0.778773363100863
0.72,0.734572,2.37235,0.842734,2.722247605633803,0.7558200532152517
0.722,0.735796,2.38233,0.840589,2.734102957746479,0.7153908517323367
0.724,0.735994,2.40229,0.835922,2.745958309859155,0.6705817764868928
0.726,0.73722,2.42225,0.837383,2.757813661971831,0.6377781851142075
0.728,0.736292,2.44222,0.830988,2.7696690140845073,0.6208868285416892
0.73,0.737568,2.46218,0.829341,2.7815243661971834,0.6120194066679326
0.732,0.736652,2.49212,0.830144,2.793379718309859,0.604083852992008
0.734,0.737699,2.53204,0.824532,2.805235070422535,0.595080891605839
0.736,0.738256,2.56199,0.823712,2.817090422535211,0.5843834767672265
0.738,0.738774,2.59193,0.817899,2.828945774647887,0.5735971929548324
0.74,0.739121,2.62187,0.826442,2.8408011267605633,0.5667375848059829
0.742,0.739875,2.65182,0.823047,2.8526564788732394,0.5679370626586548
0.744,0.738758,2.69174,0.793242,2.8645118309859154,0.5777285100692962
0.746,0.74004,2.72168,0.757355,2.8763671830985915,0.5860306521647629
0.748,0.739988,2.75163,0.652558,2.8882225352112676,0.5815816792473432
0.7505,0.738923,2.78157,0.61199,2.9000778873239437,0.565690294395252
0.7535,0.741291,2.81151,0.589641,2.9119332394366197,0.549939696421416
0.7565,0.741819,2.85144,0.567325,2.923788591549296,0.5432655353876353
0.7595,0.741636,2.88138,0.586171,2.935643943661972,0.5444991311722541
0.7625,0.741599,2.91132,0.550562,2.947499295774648,0.5503093378316215
0.7655,0.742308,2.94126,0.546885,2.959354647887324,0.5573650094220871
0.7685,0.743614,2.97121,0.562335,2.97121,0.562335
0.7715,0.744693,,,,
0.7745,0.744321,,,,
0.7775,0.744173,,,,
0.781,0.744334,,,,
0.785,0.746883,,,,
0.789,0.745771,,,,
0.793,0.746341,,,,
0.797,0.747061,,,,
0.8015,0.747999,,,,
0.8065,0.748945,,,,
0.8115,0.74986,,,,
0.8165,0.749163,,,,
0.822,0.749866,,,,
0.828,0.7486,,,,
0.835,0.747569,,,,
0.843,0.748854,,,,
0.851,0.759279,,,,
0.859,0.753145,,,,
0.871,0.75766,,,,
0.883,0.762542,,,,
0.894,0.762363,,,,
0.904,0.763199,,,,
0.914,0.763871,,,,
0.924,0.769538,,,,
0.933,0.765942,,,,
0.941,0.770638,,,,
0.949,0.768975,,,,
0.957,0.773268,,,,
0.964,0.774175,,,,
0.97,0.774343,,,,
0.976,0.773595,,,,
0.982,0.776963,,,,
0.988,0.778099,,,,
0.994,0.777315,,,,
1.0,0.782333,,,,
1.006,0.780042,,,,
1.012,0.780331,,,,
1.018,0.783078,,,,
1.0235,0.783386,,,,
1.0285,0.783841,,,,
1.0335,0.785762,,,,
1.0385,0.787216,,,,
1.0435,0.788305,,,,
1.0485,0.78751,,,,
1.0535,0.788361,,,,
1.0585,0.788806,,,,
1.0635,0.788632,,,,
1.0685,0.78991,,,,
1.0735,0.789753,,,,
1.0785,0.791365,,,,
1.0835,0.793426,,,,
1.0885,0.790624,,,,
1.0935,0.79297,,,,
1.0985,0.792492,,,,
1.1035,0.795403,,,,
1.1085,0.795534,,,,
1.1135,0.795358,,,,
1.1185,0.794622,,,,
1.1235,0.796287,,,,
1.1285,0.797064,,,,
1.1335,0.797768,,,,
1.1385,0.798311,,,,
1.1435,0.798268,,,,
1.1485,0.799103,,,,
1.1535,0.798131,,,,
1.1585,0.79899,,,,
1.1635,0.800374,,,,
1.1685,0.798631,,,,
1.1735,0.800783,,,,
1.1785,0.800598,,,,
1.1835,0.799694,,,,
1.1885,0.805043,,,,
1.1935,0.801122,,,,
1.1985,0.80398,,,,
1.2035,0.804754,,,,
1.2085,0.80225,,,,
1.2135,0.804029,,,,
1.2185,0.806066,,,,
1.2235,0.806908,,,,
1.2285,0.805506,,,,
1.2335,0.807889,,,,
1.2385,0.805506,,,,
1.2435,0.805215,,,,
1.2485,0.808393,,,,
1.2535,0.806002,,,,
1.2585,0.807376,,,,
1.2635,0.807944,,,,
1.2685,0.807888,,,,
1.2735,0.808772,,,,
1.2785,0.8055,,,,
1.2835,0.807801,,,,
1.2885,0.809794,,,,
1.2935,0.807392,,,,
1.2985,0.809,,,,
1.3035,0.809364,,,,
1.3085,0.810071,,,,
1.3135,0.812251,,,,
1.3185,0.809726,,,,
1.3235,0.808407,,,,
1.3285,0.811235,,,,
1.3335,0.810914,,,,
1.3385,0.809319,,,,
1.3435,0.810941,,,,
1.3485,0.811609,,,,
1.3535,0.811521,,,,
1.3585,0.81159,,,,
1.3635,0.810628,,,,
1.3685,0.811436,,,,
1.3735,0.812045,,,,
1.3785,0.811535,,,,
1.3835,0.811398,,,,
1.3885,0.81186,,,,
1.3935,0.813599,,,,
1.3985,0.813028,,,,
1.4035,0.811974,,,,
1.4085,0.813923,,,,
1.4135,0.811509,,,,
1.4185,0.813586,,,,
1.4235,0.814533,,,,
1.4285,0.814538,,,,
1.4335,0.817387,,,,
1.4385,0.815922,,,,
1.4435,0.817228,,,,
1.4485,0.816539,,,,
1.4535,0.815681,,,,
1.4585,0.816551,,,,
1.4635,0.814386,,,,
1.4685,0.819705,,,,
1.4735,0.815078,,,,
1.4785,0.81719,,,,
1.4835,0.816386,,,,
1.4885,0.818944,,,,
1.4935,0.816343,,,,
1.4985,0.819986,,,,
1.5035,0.81763,,,,
1.5085,0.816944,,,,
1.5135,0.81757,,,,
1.5185,0.820914,,,,
1.5235,0.81836,,,,
1.5285,0.819436,,,,
1.534,0.820719,,,,
1.54,0.822945,,,,
1.546,0.818088,,,,
1.552,0.819065,,,,
1.558,0.823776,,,,
1.564,0.822796,,,,
1.5705,0.822312,,,,
1.5775,0.821991,,,,
1.5845,0.821853,,,,
1.5915,0.822644,,,,
1.5985,0.821953,,,,
1.6055,0.821761,,,,
1.6125,0.822501,,,,
1.6195,0.821456,,,,
1.6265,0.822087,,,,
1.6335,0.821353,,,,
1.6405,0.823473,,,,
1.6475,0.821624,,,,
1.6545,0.823026,,,,
1.6615,0.826361,,,,
1.6685,0.821163,,,,
1.676,0.823502,,,,
1.684,0.822557,,,,
1.692,0.825669,,,,
1.7,0.828043,,,,
1.708,0.828531,,,,
1.716,0.823694,,,,
1.724,0.824455,,,,
1.732,0.820617,,,,
1.74,0.822951,,,,
1.748,0.825327,,,,
1.756,0.826078,,,,
1.764,0.826067,,,,
1.772,0.823693,,,,
1.78,0.82763,,,,
1.788,0.828618,,,,
1.796,0.829175,,,,
1.805,0.826087,,,,
1.815,0.826947,,,,
1.825,0.824762,,,,
1.835,0.82539,,,,
1.845,0.828799,,,,
1.855,0.825947,,,,
1.865,0.825653,,,,
1.875,0.826147,,,,
1.885,0.822694,,,,
1.895,0.82355,,,,
1.905,0.823145,,,,
1.915,0.818266,,,,
1.925,0.820498,,,,
1.935,0.82333,,,,
1.945,0.822477,,,,
1.955,0.823275,,,,
1.965,0.825512,,,,
1.975,0.827582,,,,
1.985,0.828957,,,,
1.995,0.831195,,,,
2.005,0.830904,,,,
2.015,0.825094,,,,
2.025,0.831737,,,,
2.035,0.83059,,,,
2.045,0.833427,,,,
2.055,0.831096,,,,
2.065,0.831186,,,,
2.075,0.828706,,,,
2.085,0.83334,,,,
2.095,0.838147,,,,
2.105,0.836369,,,,
2.115,0.838745,,,,
2.125,0.841353,,,,
2.135,0.841922,,,,
2.145,0.837873,,,,
2.155,0.836584,,,,
2.165,0.836215,,,,
2.175,0.832405,,,,
2.185,0.831486,,,,
2.195,0.832159,,,,
2.205,0.827313,,,,
2.215,0.833465,,,,
2.225,0.831547,,,,
2.235,0.830854,,,,
2.245,0.828049,,,,
2.255,0.824434,,,,
2.265,0.832178,,,,
2.275,0.831883,,,,
2.285,0.831221,,,,
