Wavelength (µm) raw,BKR1KW003E anorthite Kierra <45µm heated 650 °C under vacuum raw,Wavelength (µm) bin avg,BKR1KW003E anorthite Kierra <45µm heated 650 °C under vacuum bin avg,Wavelength (µm) cubic spline of bin avg,BKR1KW003E anorthite Kierra <45µm heated 650 °C under vacuum cubic spline of bin avg
0.3,0.334436,0.44602,0.729873,0.44602,0.729873
0.305,0.393323,0.456,0.736358,0.45600098039215686,0.736358670508283
0.31,0.454611,0.46598,0.7431425,0.46598196078431375,0.7431437874148641
0.315,0.507841,0.47596,0.7491735,0.47596294117647064,0.7491750942849257
0.32,0.553444,0.48595,0.7543815,0.4859439215686275,0.7543781446471807
0.325,0.582792,0.49593,0.7601825,0.4959249019607843,0.7601796575567167
0.33,0.609282,0.50591,0.7651680000000001,0.5059058823529412,0.765166104582874
0.335,0.625392,0.51589,0.7698849999999999,0.5158868627450981,0.7698833754881983
0.34,0.638229,0.52587,0.7755160000000001,0.525867843137255,0.7755147512474166
0.345,0.64687,0.53585,0.781207,0.5358488235294118,0.781206329747723
0.35,0.654768,0.54583,0.786968,0.5458298039215687,0.7869678853607811
0.355,0.659558,0.55581,0.793085,0.5558107843137255,0.7930855193651972
0.36,0.667504,0.56579,0.7998845,0.5657917647058823,0.7998856458237978
0.365,0.670507,0.57577,0.805891,0.5757727450980392,0.8058926197754498
0.37,0.676361,0.58576,0.8116639999999999,0.5857537254901961,0.8116606764489541
0.375,0.676826,0.59574,0.8164125,0.595734705882353,0.8164101052384903
0.38,0.676857,0.60572,0.8206205,0.6057156862745099,0.8206189757346444
0.385,0.677041,0.6157,0.823655,0.6156966666666667,0.823653961637465
0.39,0.684624,0.62568,0.8270065,0.6256776470588236,0.8270057465295085
0.395,0.692138,0.63566,0.8299145,0.6356586274509805,0.8299141030146768
0.4,0.699912,0.64564,0.8330124999999999,0.6456396078431372,0.8330123712720674
0.405,0.702106,0.65562,0.836412,0.6556205882352941,0.8364122064082747
0.41,0.707863,0.6656,0.839925,0.665601568627451,0.8399255428590273
0.415,0.708749,0.67558,0.843259,0.6755825490196079,0.8432598233883856
0.42,0.712357,0.68556,0.8462805,0.6855635294117648,0.8462814610066229
0.425,0.71444,0.69555,0.8487180000000001,0.6955445098039216,0.8487167478581498
0.43,0.719872,0.70553,0.8510880000000001,0.7055254901960785,0.8510868282592204
0.435,0.722026,0.71551,0.8537535,0.7155064705882352,0.8537526307731139
0.44,0.725804,0.72549,0.8560559999999999,0.7254874509803921,0.8560553666136923
0.445,0.727883,0.73547,0.8589085000000001,0.735468431372549,0.8589080147411746
0.45,0.731863,0.74545,0.8618545,0.7454494117647059,0.8618543487481055
0.455,0.733995,0.75543,0.8639479999999999,0.7554303921568628,0.863948069422252
0.46,0.738721,0.76541,0.8656079999999999,0.7654113725490197,0.86560822382541
0.465,0.741468,0.77539,0.867182,0.7753923529411766,0.8671823360521825
0.47,0.744817,0.78537,0.868471,0.7853733333333334,0.8684714207996566
0.475,0.747496,0.79536,0.8698735,0.7953543137254901,0.8698725853856578
0.48,0.750851,0.80534,0.8714295000000001,0.805335294117647,0.8714289386656836
0.485,0.752767,0.81532,0.8725045,0.8153162745098039,0.8725039300849842
0.49,0.755996,0.8253,0.8740095,0.8252972549019608,0.8740093784015767
0.495,0.75811,0.83528,0.8739775000000001,0.8352782352941177,0.8739773010001234
0.5,0.762255,0.84526,0.8763885,0.8452592156862746,0.8763883277323778
0.505,0.763359,0.85524,0.877401,0.8552401960784315,0.8774010074081234
0.51,0.766977,0.86522,0.8778969999999999,0.8652211764705883,0.8778970973049429
0.515,0.768331,0.8752,0.878575,0.875202156862745,0.878574966094004
0.52,0.771439,0.88518,0.8778265000000001,0.8851831372549019,0.8778263710372607
0.525,0.77402,0.89517,0.878154,0.8951641176470588,0.8781536852089008
0.53,0.777012,0.90515,0.878555,0.9051450980392157,0.8785547744610165
0.535,0.779422,0.91513,0.8790005000000001,0.9151260784313726,0.8790004337415024
0.54,0.782992,0.92511,0.8789530000000001,0.9251070588235295,0.8789529820420916
0.545,0.785404,0.93509,0.879218,0.9350880392156864,0.8792179528681812
0.55,0.788532,0.94507,0.8793055000000001,0.9450690196078432,0.8793054963587735
0.555,0.791383,0.95505,0.879448,0.95505,0.879448
0.56,0.794787,0.96503,0.8798265000000001,0.9650309803921568,0.8798265312798454
0.565,0.798098,0.97501,0.8798125,0.9750119607843137,0.8798124052547354
0.57,0.801671,0.98499,0.87928,0.9849929411764706,0.879279991406048
0.575,0.804119,0.99497,0.879644,0.9949739215686275,0.8796440369910989
0.58,0.807663,1.00496,0.8793835000000001,1.0049549019607844,0.8793835187679179
0.585,0.810237,1.01494,0.87966,1.0149358823529413,0.8796599584609412
0.59,0.813091,1.02492,0.8794565,1.0249168627450982,0.879456546027289
0.595,0.815185,1.0349,0.879471,1.0348978431372549,0.8794710177605305
0.6,0.81764,1.04488,0.8792305,1.0448788235294117,0.8792305238967212
0.605,0.819997,1.05486,0.8792335,1.0548598039215686,0.8792334964535642
0.61,0.821244,1.06484,0.879394,1.0648407843137255,0.879393997730554
0.615,0.823183,1.07482,0.8792215,1.0748217647058824,0.8792214821299191
0.62,0.824127,1.0848,0.8794455,1.0848027450980393,0.8794456617098524
0.625,0.826431,1.09478,0.8802395000000001,1.0947837254901962,0.8802398000752564
0.63,0.827582,1.10477,0.8808085,1.104764705882353,0.8808083492595781
0.635,0.829395,1.11475,0.880961,1.1147456862745098,0.8809609038388204
0.64,0.830434,1.12473,0.88123,1.1247266666666667,0.881229969844161
0.645,0.8325,1.13471,0.8811709999999999,1.1347076470588235,0.8811709889855536
0.65,0.833525,1.14469,0.8813745,1.1446886274509804,0.8813744785217142
0.655,0.835644,1.15467,0.8814235,1.1546696078431373,0.8814234966151275
0.66,0.83718,1.16465,0.881685,1.1646505882352942,0.8816850253906351
0.665,0.839012,1.17463,0.882082,1.174631568627451,0.8820820261247913
0.67,0.840838,1.18461,0.8820045,1.184612549019608,0.8820044649178028
0.675,0.842743,1.19459,0.88201,1.1945935294117647,0.8820100591761674
0.68,0.843775,1.20458,0.8821335,1.2045745098039216,0.8821335797457763
0.685,0.845737,1.21456,0.881887,1.2145554901960784,0.8818869803485625
0.69,0.846824,1.22454,0.8822675,1.2245364705882353,0.8822673683814041
0.695,0.84777,1.23452,0.8824725,1.2345174509803922,0.8824724426706763
0.7,0.849666,1.2445,0.882846,1.2444984313725491,0.8828459268489285
0.705,0.850827,1.25448,0.8830965,1.254479411764706,0.8830965126200382
0.71,0.851349,1.26446,0.8828320000000001,1.264460392156863,0.882832013723684
0.715,0.853883,1.27444,0.8837250000000001,1.2744413725490196,0.8837250966438576
0.72,0.853624,1.28442,0.884,1.2844223529411765,0.8840000810033687
0.725,0.856022,1.2944,0.8846195,1.2944033333333334,0.8846197026687908
0.73,0.85609,1.30438,0.8850245,1.3043843137254902,0.885024630748296
0.735,0.858589,1.31437,0.885518,1.3143652941176471,0.8855175865216148
0.74,0.859228,1.32435,0.8865055,1.324346274509804,0.8865052643442337
0.745,0.860862,1.33433,0.886826,1.334327254901961,0.8868258562158037
0.75,0.862847,1.34431,0.8876854999999999,1.3443082352941178,0.8876853554710509
0.755,0.863502,1.35429,0.888227,1.3542892156862745,0.8882269677060319
0.76,0.864394,1.36427,0.888493,1.3642701960784314,0.888492999243643
0.765,0.865255,1.37425,0.888352,1.3742511764705883,0.8883520139218642
0.77,0.865961,1.38423,0.8889285,1.3842321568627451,0.88892868865263
0.775,0.867227,1.39421,0.8897744999999999,1.394213137254902,0.8897747067912429
0.78,0.867137,1.40419,0.890204,1.404194117647059,0.8902041327992054
0.785,0.868523,1.41418,0.8906365,1.4141750980392158,0.890636186062009
0.79,0.868419,1.42416,0.891703,1.4241560784313727,0.8917023647406382
0.795,0.869692,1.43414,0.8934815,1.4341370588235294,0.8934810790972261
0.8,0.870055,1.44412,0.894276,1.4441180392156863,0.8942759233200261
0.805,0.871745,1.4541,0.8948575,1.4540990196078432,0.8948573881143835
0.81,0.871114,1.46408,0.896335,1.46408,0.896335
0.815,0.87264,1.47406,0.8970905,1.474060980392157,0.8970905626402211
0.82,0.872369,1.48404,0.89783,1.4840419607843138,0.8978301382899287
0.825,0.873464,1.49402,0.8985045,1.4940229411764707,0.8985047324763646
0.83,0.874555,1.504,0.8992865,1.5040039215686276,0.8992867005328677
0.835,0.873133,1.51399,0.899816,1.5139849019607845,0.8998154371101797
0.84,0.874822,1.52397,0.9010670000000001,1.5239658823529412,0.9010668261968967
0.845,0.876318,1.53395,0.90098,1.533946862745098,0.9009797778041101
0.85,0.876459,1.54393,0.9024675,1.543927843137255,0.9024672943782566
0.855,0.876719,1.55391,0.9025845,1.5539088235294118,0.9025844644293438
0.86,0.878083,1.56389,0.9034774999999999,1.5638898039215687,0.9034774828788699
0.865,0.877204,1.57387,0.9041625,1.5738707843137256,0.9041625743834891
0.87,0.87859,1.58385,0.905315,1.5838517647058825,0.9053151512186367
0.875,0.87808,1.59383,0.905745,1.5938327450980394,0.9057451044730127
0.88,0.87907,1.60381,0.9062985,1.6038137254901963,0.9062987150928259
0.885,0.877188,1.6138,0.906845,1.613794705882353,0.9068446744598478
0.89,0.878465,1.62378,0.907305,1.6237756862745099,0.9073050055970614
0.895,0.877729,1.63376,0.9072515000000001,1.6337566666666667,0.9072512800901028
0.9,0.878579,1.64374,0.9085435,1.6437376470588236,0.9085432422051657
0.905,0.877925,1.65372,0.9093344999999999,1.6537186274509805,0.9093343326031502
0.91,0.879185,1.6637,0.9110065,1.6636996078431374,0.9110064439450489
0.915,0.878622,1.67368,0.9120455000000001,1.6736805882352943,0.9120455713012243
0.92,0.879379,1.68366,0.9135265,1.683661568627451,0.9135267035096224
0.925,0.878449,1.69364,0.914207,1.6936425490196079,0.9142070243110597
0.93,0.879457,1.70362,0.914158,1.7036235294117648,0.9141580772928045
0.935,0.878997,1.7136,0.914717,1.7136045098039216,0.9147172536199694
0.94,0.879439,1.72359,0.914885,1.7235854901960785,0.9148851278216468
0.945,0.878611,1.73357,0.9144384999999999,1.7335664705882354,0.9144385939743117
0.95,0.88,1.74355,0.91438,1.7435474509803923,0.9143800433251493
0.955,0.879151,1.75353,0.9141855,1.7535284313725492,0.9141854708641561
0.96,0.879745,1.76351,0.9147505,1.763509411764706,0.9147504682133906
0.965,0.879355,1.77349,0.9149695,1.7734903921568628,0.9149695003708752
0.97,0.880298,1.78347,0.914984,1.7834713725490197,0.9149840169841126
0.975,0.879515,1.79345,0.9151724999999999,1.7934523529411766,0.915172524907417
0.98,0.88011,1.80343,0.9152899999999999,1.8034333333333334,0.9152901242166129
0.985,0.87928,1.81341,0.915902,1.8134143137254903,0.9159022574958327
0.99,0.879979,1.8234,0.916274,1.8233952941176472,0.9162739075361699
0.995,0.879309,1.83338,0.916383,1.8333762745098041,0.9163829769374037
1.0,0.879368,1.84336,0.9164315000000001,1.8433572549019608,0.9164314919239915
1.005,0.879399,1.85334,0.9165179999999999,1.8533382352941177,0.9165179600790188
1.01,0.879899,1.86332,0.9164755,1.8633192156862746,0.9164755629084379
1.015,0.879421,1.8733,0.9154655,1.8733001960784315,0.9154654964445951
1.02,0.879817,1.88328,0.9161965,1.8832811764705883,0.9161965810394316
1.025,0.879096,1.89326,0.9160035,1.8932621568627452,0.9160032935116342
1.03,0.879728,1.90324,0.9150149999999999,1.9032431372549021,0.9150148709586696
1.035,0.879214,1.91322,0.914935,1.913224117647059,0.9149347494386133
1.04,0.879448,1.92321,0.9141245,1.923205098039216,0.9141244169891913
1.045,0.879013,1.93319,0.915224,1.9331860784313726,0.915223686171542
1.05,0.879322,1.94317,0.9153025,1.9431670588235295,0.9153024494788345
1.055,0.879145,1.95315,0.915881,1.9531480392156864,0.9158809044609382
1.06,0.879599,1.96313,0.9160699999999999,1.9631290196078433,0.91606998171422
1.065,0.879189,1.97311,0.9164055,1.9731100000000001,0.9164055
1.07,0.879664,1.98309,0.9166939999999999,1.983090980392157,0.9166940309641863
1.075,0.878779,1.99307,0.917104,1.993071960784314,0.9171040966805192
1.08,0.87922,2.00305,0.9176305,2.0030529411764704,0.917630655019908
1.085,0.879671,2.01303,0.917969,2.0130339215686273,0.9179689994655823
1.09,0.879951,2.02301,0.917915,2.023014901960784,0.9179151633406772
1.095,0.880528,2.033,0.9184295,2.032995882352941,0.9184294784721969
1.1,0.881027,2.04298,0.9180714999999999,2.042976862745098,0.9180715227874435
1.105,0.88059,2.05296,0.9182859999999999,2.052957843137255,0.918286041766617
1.11,0.881121,2.06294,0.9176930000000001,2.0629388235294117,0.9176930341214855
1.115,0.880801,2.07292,0.9180455000000001,2.0729198039215686,0.918045487635399
1.12,0.881659,2.0829,0.918491,2.0829007843137255,0.9184910130439274
1.125,0.880801,2.09288,0.918382,2.0928817647058824,0.9183819498044277
1.13,0.880934,2.10286,0.9182135,2.1028627450980393,0.9182135377017173
1.135,0.881408,2.11284,0.9185625,2.112843725490196,0.9185626035906538
1.14,0.881704,2.12282,0.9186350000000001,2.122824705882353,0.9186350080498151
1.145,0.881045,2.13281,0.9185795,2.13280568627451,0.9185796272924813
1.15,0.88177,2.14279,0.9180265000000001,2.142786666666667,0.9180267218070115
1.155,0.881077,2.15277,0.9175495,2.1527676470588237,0.9175495328021996
1.16,0.881635,2.16275,0.9175774999999999,2.16274862745098,0.9175775174381412
1.165,0.881735,2.17273,0.9174005000000001,2.172729607843137,0.9174004921636677
1.17,0.882111,2.18271,0.9180455000000001,2.182710588235294,0.9180455432047261
1.175,0.882053,2.19269,0.9185665000000001,2.192691568627451,0.9185665575924077
1.18,0.882477,2.20267,0.918751,2.2026725490196077,0.9187509789674497
1.185,0.881532,2.21265,0.9185765,2.2126535294117646,0.9185764974354278
1.19,0.882181,2.22263,0.9187635000000001,2.2226345098039215,0.9187635674418124
1.195,0.881839,2.23262,0.9186855,2.2326154901960784,0.9186856186193687
1.2,0.882418,2.2426,0.9186105,2.2425964705882353,0.9186103438006746
1.205,0.881849,2.25258,0.9193614999999999,2.252577450980392,0.9193613664590808
1.21,0.881998,2.26256,0.9196165,2.262558431372549,0.9196164237196431
1.215,0.881776,2.27254,0.9205135,2.272539411764706,0.9205134415508452
1.22,0.88199,2.28252,0.9213075,2.282520392156863,0.9213075244026857
1.225,0.882545,2.2925,0.9219284999999999,2.2925013725490198,0.9219286057999307
1.23,0.882542,2.30248,0.9228449999999999,2.3024823529411766,0.922845215596375
1.235,0.882403,2.31246,0.9236275,2.3124633333333335,0.9236277237048788
1.24,0.882845,2.32244,0.924203,2.32244431372549,0.9242032075845866
1.245,0.882847,2.33242,0.9247110000000001,2.332425294117647,0.924711349926745
1.25,0.882843,2.34241,0.9253765,2.3424062745098038,0.9253763506414465
1.255,0.88335,2.35239,0.925352,2.3523872549019607,0.9253520931398824
1.26,0.88298,2.36237,0.9246615,2.3623682352941175,0.9246617104390078
1.265,0.882684,2.37235,0.9232735000000001,2.3723492156862744,0.9232735892776442
1.27,0.883765,2.38233,0.922721,2.3823301960784313,0.9227209982819947
1.275,0.883685,2.39231,0.9228585,2.392311176470588,0.9228585283809305
1.28,0.883963,2.40229,0.9230430000000001,2.402292156862745,0.9230430195351483
1.285,0.884037,2.41227,0.9229445000000001,2.412273137254902,0.9229443916953984
1.29,0.884498,2.42225,0.9226080000000001,2.422254117647059,0.9226079928132701
1.295,0.884741,2.43223,0.9228305,2.432235098039216,0.9228305372255702
1.3,0.884962,2.44222,0.922554,2.4422160784313727,0.9225541711492438
1.305,0.885087,2.4522,0.9223574999999999,2.452197058823529,0.9223574261163527
1.31,0.885469,2.46218,0.9227810000000001,2.462178039215686,0.9227809777750227
1.315,0.885567,2.47216,0.9228434999999999,2.472159019607843,0.9228434258217784
1.32,0.886425,2.48214,0.9240124999999999,2.48214,0.9240124999999999
1.325,0.886586,2.49212,0.9239485000000001,2.4921209803921567,0.9239485312075703
1.33,0.886602,2.5021,0.9248321428571428,2.5021019607843136,0.9248322662386871
1.335,0.88705,2.51208,0.9248521249999999,2.5120829411764705,0.9248520898213825
1.34,0.8874,2.52206,0.9249275555555556,2.5220639215686274,0.924927608944916
1.345,0.887971,2.53204,0.9250313750000001,2.5320449019607842,0.9250314308184753
1.35,0.888048,2.54203,0.9251692499999999,2.542025882352941,0.9251691946038714
1.355,0.888406,2.55201,0.9252816250000001,2.552006862745098,0.9252815936642125
1.36,0.888436,2.56199,0.9253795714285715,2.561987843137255,0.9253795502523062
1.365,0.88855,2.57197,0.9254615,2.571968823529412,0.9254614943404967
1.37,0.888646,2.58195,0.925531125,2.5819498039215687,0.9255311217649286
1.375,0.888058,2.59193,0.925652125,2.5919307843137256,0.9256521144052329
1.38,0.888494,2.60191,0.9253034285714286,2.601911764705882,0.9253033740045493
1.385,0.889363,2.61189,0.9251735,2.611892745098039,0.925173481700423
1.39,0.889867,2.62187,0.92504825,2.621873725490196,0.925048178754182
1.395,0.889682,2.63185,0.9247378571428572,2.6318547058823527,0.9247376321294304
1.4,0.890121,2.64183,0.9241144285714286,2.6418356862745096,0.924114028449174
1.405,0.890287,2.65182,0.9230943750000001,2.6518166666666665,0.9230949230856151
1.41,0.890434,2.6618,0.9198940000000001,2.6617976470588234,0.919895271042001
1.415,0.890839,2.67178,0.9125015714285715,2.6717786274509803,0.9125027500497148
1.42,0.891128,2.68176,0.904687375,2.681759607843137,0.9046876087347527
1.425,0.892278,2.69174,0.9009355714285714,2.691740588235294,0.9009354337888267
1.43,0.893401,2.70172,0.89888,2.701721568627451,0.8988796647316959
1.435,0.893562,2.7117,0.8963978571428571,2.711702549019608,0.8963971557831495
1.44,0.894164,2.72168,0.8932325714285714,2.7216835294117647,0.8932312184211989
1.445,0.894388,2.73166,0.8886610000000001,2.7316645098039216,0.8886586670630032
1.45,0.894613,2.74164,0.8830762857142856,2.7416454901960785,0.883072988530055
1.455,0.895102,2.75163,0.8768731666666666,2.7516264705882354,0.8768753623357
1.46,0.89621,2.76161,0.8706455714285715,2.7616074509803923,0.8706472177286811
1.465,0.89646,2.77159,0.864098,2.7715884313725487,0.8640989955630544
1.47,0.896792,2.78157,0.8583331428571428,2.7815694117647056,0.8583334467485145
1.475,0.897389,2.79155,0.8536565,2.7915503921568625,0.8536563283851775
1.48,0.897745,2.80153,0.8494817142857143,2.8015313725490194,0.8494811739666078
1.485,0.897915,2.81151,0.8457263333333334,2.8115123529411763,0.8457254591206519
1.49,0.898274,2.82149,0.8420654285714286,2.821493333333333,0.842064263521113
1.495,0.898735,2.83147,0.8388028333333334,2.83147431372549,0.8388014893054381
1.5,0.899227,2.84145,0.8357468571428572,2.841455294117647,0.8357452501094479
1.505,0.899346,2.85144,0.8328465,2.851436274509804,0.8328474829575143
1.51,0.899614,2.86142,0.8303921666666666,2.8614172549019607,0.8303928524728718
1.515,0.900018,2.8714,0.827794857142857,2.8713982352941176,0.8277953077709373
1.52,0.90039,2.88138,0.8254315000000001,2.8813792156862745,0.8254316725001782
1.525,0.901744,2.89136,0.8234048333333334,2.8913601960784314,0.823404797147535
1.53,0.900742,2.90134,0.8216923333333334,2.9013411764705883,0.8216921381924299
1.535,0.901218,2.91132,0.8201498333333332,2.911322156862745,0.8201495520296859
1.54,0.901914,2.9213,0.8190006666666667,2.9213031372549016,0.8190002853800056
1.545,0.903021,2.93128,0.8177334285714286,2.9312841176470585,0.8177329763633534
1.55,0.901957,2.94126,0.8169399999999999,2.9412650980392154,0.816939701493181
1.555,0.903212,2.95125,0.8164676,2.9512460784313723,0.8164677423851869
1.56,0.903304,2.96123,0.8162111666666667,2.961227058823529,0.8162112112641657
1.565,0.903651,2.97121,0.8161553333333332,2.971208039215686,0.8161553273038644
1.57,0.903925,2.98119,0.8162568333333334,2.981189019607843,0.8162568170777145
1.575,0.9044,2.99117,0.8164726666666667,2.99117,0.8164726666666667
1.58,0.905118,,,,
1.585,0.905512,,,,
1.59,0.905626,,,,
1.595,0.905864,,,,
1.6,0.906365,,,,
1.605,0.906232,,,,
1.61,0.906568,,,,
1.615,0.907122,,,,
1.62,0.907209,,,,
1.625,0.907401,,,,
1.63,0.907124,,,,
1.635,0.907379,,,,
1.64,0.907981,,,,
1.645,0.909106,,,,
1.65,0.909353,,,,
1.655,0.909316,,,,
1.66,0.910217,,,,
1.665,0.911796,,,,
1.67,0.911898,,,,
1.675,0.912193,,,,
1.68,0.913177,,,,
1.685,0.913876,,,,
1.69,0.91418,,,,
1.695,0.914234,,,,
1.7,0.913778,,,,
1.705,0.914538,,,,
1.71,0.914596,,,,
1.715,0.914838,,,,
1.72,0.914917,,,,
1.725,0.914853,,,,
1.73,0.9147,,,,
1.735,0.914177,,,,
1.74,0.914142,,,,
1.745,0.914618,,,,
1.75,0.914164,,,,
1.755,0.914207,,,,
1.76,0.914366,,,,
1.765,0.915135,,,,
1.77,0.914764,,,,
1.775,0.915175,,,,
1.78,0.914881,,,,
1.785,0.915087,,,,
1.79,0.915627,,,,
1.795,0.914718,,,,
1.8,0.915142,,,,
1.805,0.915438,,,,
1.81,0.915208,,,,
1.815,0.916596,,,,
1.82,0.915944,,,,
1.825,0.916604,,,,
1.83,0.916592,,,,
1.835,0.916174,,,,
1.84,0.916485,,,,
1.845,0.916378,,,,
1.85,0.916428,,,,
1.855,0.916608,,,,
1.86,0.917225,,,,
1.865,0.915726,,,,
1.87,0.914616,,,,
