Wavelength raw,SynOl_Fo20 raw,Wavelength bin avg,SynOl_Fo20 bin avg,Wavelength cubic spline of bin avg,SynOl_Fo20 cubic spline of bin avg
0.3,0.04099,0.47000000000000003,0.184916,0.47000000000000003,0.184916
0.305,0.0419,0.5025000000000001,0.2232925,0.49961429718875505,0.22005382443085536
0.31,0.04094,0.5425000000000001,0.2632675,0.5292285943775101,0.2511504672217407
0.315,0.04102,0.5824999999999999,0.29125625,0.5588428915662651,0.2763204664934889
0.32,0.0424,0.6224999999999999,0.30863875,0.5884571887550202,0.29424908846061865
0.325,0.04347,0.6625,0.3260675,0.6180714859437751,0.30677155623415153
0.33,0.04482,0.7024999999999999,0.335325,0.6476857831325302,0.32001081535117576
0.335,0.04671,0.7374999999999999,0.3365266666666667,0.6773000803212852,0.3306790925778056
0.34,0.04848,0.7625000000000001,0.33406,0.7069143775100403,0.3357793122664987
0.345,0.05165,0.7825000000000001,0.32888249999999997,0.7365286746987953,0.33655987260708486
0.35,0.05463,0.8025000000000001,0.32095749999999995,0.7661429718875503,0.33334764592304683
0.355,0.05894,0.8225,0.3114375,0.7957572690763053,0.32388240743444935
0.36,0.06349,0.8424999999999999,0.30185500000000004,0.8253715662650604,0.31005266602222403
0.365,0.06909,0.8625,0.29237250000000004,0.8549858634538154,0.2958609852136912
0.37,0.07526,0.8825,0.284095,0.8846001606425704,0.2833233396717309
0.375,0.08148,0.9025000000000001,0.27705,0.9142144578313254,0.2726818956953654
0.38,0.08739,0.9225,0.269465,0.9438287550200805,0.2610348720129964
0.385,0.09335,0.9424999999999999,0.26156999999999997,0.9734430522088355,0.2481126539469265
0.39,0.09924,0.9624999999999999,0.25316,1.0030573493975905,0.23463587244510936
0.395,0.10552,0.9824999999999999,0.2438575,1.0326716465863455,0.22328547401597135
0.4,0.11127,1.0,0.23595999999999998,1.0622859437751007,0.21686541002662363
0.405,0.11508,1.02,0.227736,1.0919002409638556,0.2174605607051573
0.41,0.12172,1.04,0.22111666666666666,1.1215145381526106,0.22556837093109844
0.415,0.12773,1.0575,0.2174625,1.1511288353413656,0.23736707638220877
0.42,0.13362,1.0775000000000001,0.21620999999999999,1.1807431325301208,0.24721665405505944
0.425,0.13947,1.0975000000000001,0.2184725,1.2103574297188757,0.25353324131324634
0.43,0.14544,1.1175000000000002,0.2241725,1.2399717269076307,0.25705291961357596
0.435,0.15106,1.1374999999999997,0.2316775,1.2695860240963857,0.2604909780726293
0.44,0.15617,1.1575,0.23988500000000001,1.2992003212851408,0.26565111872027997
0.445,0.1598,1.1774999999999998,0.24633,1.3288146184738958,0.27281266588216535
0.45,0.16232,1.1975,0.25120750000000003,1.3584289156626508,0.2830033887759463
0.455,0.1664,1.2174999999999998,0.25455,1.3880432128514057,0.29548776194229376
0.46,0.17202,1.2375,0.25677,1.417657510040161,0.31016636200542125
0.465,0.17861,1.2574999999999998,0.25915499999999997,1.447271807228916,0.32707576277410877
0.47,0.18401,1.2775,0.2615275,1.4768861044176709,0.3453074170901282
0.475,0.19097,1.2974999999999999,0.26529,1.5065004016064258,0.36351773853289265
0.48,0.19897,1.3175000000000001,0.2698125,1.536114698795181,0.3819123575886627
0.485,0.20491,1.3375,0.2754525,1.565728995983936,0.3992227444527841
0.49,0.2098,1.3575000000000002,0.2826475,1.595343293172691,0.4147957024967199
0.495,0.21344,1.3775,0.29070999999999997,1.624957590361446,0.4290865358019467
0.5,0.21875,1.3975000000000002,0.30001,1.6545718875502011,0.44156827763455114
0.505,0.22611,1.4175,0.3100825,1.684186184738956,0.45224663471476045
0.51,0.23268,1.4375,0.32131750000000003,1.713800481927711,0.4609471699736145
0.515,0.23782,1.4575,0.33326,1.743414779116466,0.4676627724272497
0.52,0.24283,1.4775000000000003,0.3456875,1.7730290763052212,0.4725598363976407
0.525,0.24713,1.4975,0.35795,1.8026433734939762,0.47582712899617
0.53,0.25137,1.5175,0.3703725,1.8322576706827312,0.4784380472925998
0.535,0.25634,1.5375,0.38276,1.8618719678714861,0.4806828110728976
0.54,0.26153,1.5575,0.394625,1.8914862650602413,0.4820768540105802
0.545,0.26638,1.5824999999999998,0.40817166666666677,1.9211005622489963,0.4831174143939432
0.55,0.27094,1.6175,0.42565125000000004,1.9507148594377512,0.48395981689157974
0.555,0.27437,1.6575,0.44270499999999996,1.9803291566265064,0.48457936939195595
0.56,0.27808,1.6974999999999998,0.45641499999999996,2.0099434538152616,0.48508812959776876
0.565,0.28155,1.7374999999999998,0.46646999999999994,2.0395577510040166,0.48552174088170186
0.57,0.28507,1.7775,0.473145,2.0691720481927716,0.4859251632276766
0.575,0.2876,1.8175,0.47715125,2.0987863453815265,0.486345104511602
0.58,0.29047,1.8632454545454544,0.48076636363636355,2.1284006425702815,0.48674584884551075
0.585,0.29294,1.8980649122807016,0.482318245614035,2.1580149397590365,0.48689378965992586
0.59,0.29513,1.9381464285714283,0.48363517857142835,2.1876292369477914,0.4868907116637069
0.595,0.29777,1.9780596153846153,0.4845367307692307,2.217243534136547,0.48692655151497377
0.6,0.29952,2.0177117647058824,0.48520803921568617,2.246857831325302,0.4869754627144551
0.605,0.30191,2.057742857142857,0.4857693877551021,2.276472128514057,0.4869990945292547
0.61,0.30341,2.097691489361702,0.4863289361702128,2.3060864257028117,0.48699674111141755
0.615,0.30499,2.1374711111111107,0.48682555555555557,2.3357007228915667,0.4869827934593497
0.62,0.30722,2.1774227272727273,0.48688931818181835,2.3653150200803217,0.48694998696767816
0.625,0.30921,2.2174547619047615,0.48692690476190464,2.3949293172690767,0.48687499534394707
0.63,0.31157,2.257519512195122,0.4869882926829268,2.424543614457832,0.48678159566878554
0.635,0.31408,2.2975333333333334,0.48699871794871785,2.454157911646587,0.4866706288903676
0.64,0.31672,2.337407894736843,0.4869815789473685,2.483772208835342,0.4864424999037069
0.645,0.31917,2.3775918918918917,0.48692486486486486,2.513386506024097,0.48613621038839644
0.65,0.3217,2.4175057142857135,0.48680228571428563,2.543000803212852,0.4857968221633163
0.655,0.32371,2.4570264705882354,0.4866544117647058,2.572615100401607,0.48541360516121934
0.66,0.32567,2.496648484848485,0.4863142424242425,2.6022293975903623,0.4849578529493781
0.665,0.32757,2.536957575757576,0.4858684848484849,2.6318436947791173,0.4845142468469197
0.67,0.32891,2.5773032258064505,0.485345806451613,2.6614579919678722,0.4839001282394594
0.675,0.33018,2.61697,0.4847313333333333,2.691072289156627,0.4828216724584004
0.68,0.33163,2.656520689655172,0.48403482758620686,2.720686586345382,0.4813281754957602
0.685,0.33282,2.6965793103448275,0.48258379310344823,2.750300883534137,0.47850968649815057
0.69,0.33362,2.7371499999999993,0.47999892857142873,2.779915180722892,0.47412054998569547
0.695,0.33494,2.7767230769230764,0.47463846153846156,2.809529477911647,0.4691806620620407
0.7,0.33517,2.81591923076923,0.46813884615384616,2.8391437751004025,0.46463054627742667
0.705,0.33595,2.8562461538461537,0.4624099999999999,2.8687580722891575,0.46102281096201136
0.71,0.33628,2.896125,0.45867374999999994,2.8983723694779124,0.4585203979157373
0.715,0.33701,2.9279866666666674,0.45701600000000003,2.9279866666666674,0.45701600000000003
