Wavelength (µm),BKR1KW003D anorthite Kierra <45µm,Wavelength (µm) target,BKR1KW003D anorthite Kierra <45µm target
0.3,0.345948,0.44602,0.8345195
0.305,0.411173,0.456,0.840657
0.31,0.476685,0.46598,0.847901
0.315,0.541165,0.47596,0.8535475
0.32,0.591556,0.48595,0.857499
0.325,0.635111,0.49593,0.862133
0.33,0.667408,0.50591,0.866355
0.335,0.693042,0.51589,0.8695955
0.34,0.711093,0.52587,0.8731535
0.345,0.724509,0.53585,0.8763529999999999
0.35,0.732651,0.54583,0.879353
0.355,0.747291,0.55581,0.881948
0.36,0.751818,0.56579,0.884355
0.365,0.766007,0.57577,0.8869180000000001
0.37,0.76925,0.58576,0.8895029999999999
0.375,0.775172,0.59574,0.8919905
0.38,0.769768,0.60572,0.894073
0.385,0.770222,0.6157,0.895759
0.39,0.780114,0.62568,0.897376
0.395,0.794442,0.63566,0.898733
0.4,0.802557,0.64564,0.900291
0.405,0.810106,0.65562,0.9019775000000001
0.41,0.811639,0.6656,0.9039065
0.415,0.815963,0.67558,0.9063095000000001
0.42,0.81413,0.68556,0.908092
0.425,0.822061,0.69555,0.9087965
0.43,0.824488,0.70553,0.9095314999999999
0.435,0.830841,0.71551,0.9100824999999999
0.44,0.83039,0.72549,0.910354
0.445,0.83414,0.73547,0.9117505
0.45,0.834899,0.74545,0.9113929999999999
0.455,0.840023,0.75543,0.9113279999999999
0.46,0.841291,0.76541,0.9123135
0.465,0.847361,0.77539,0.9130695
0.47,0.848441,0.78537,0.9128099999999999
0.475,0.853121,0.79536,0.9124615
0.48,0.853974,0.80534,0.9123049999999999
0.485,0.857066,0.81532,0.9124019999999999
0.49,0.857932,0.8253,0.9115685
0.495,0.861894,0.83528,0.9116945000000001
0.5,0.862372,0.84526,0.9127460000000001
0.505,0.865928,0.85524,0.9120225
0.51,0.866782,0.86522,0.9129769999999999
0.515,0.869224,0.8752,0.9131905
0.52,0.869967,0.88518,0.91247
0.525,0.872916,0.89517,0.9125595
0.53,0.873391,0.90515,0.910675
0.535,0.875726,0.91513,0.9097405000000001
0.54,0.87698,0.92511,0.908487
0.545,0.878999,0.93509,0.9074935
0.55,0.879707,0.94507,0.90661
0.555,0.881617,0.95505,0.9055325
0.56,0.882279,0.96503,0.9040435
0.565,0.884101,0.97501,0.902942
0.57,0.884609,0.98499,0.902253
0.575,0.886507,0.99497,0.901205
0.58,0.887329,1.005,0.9003669999999999
0.585,0.88917,1.0149,0.898832
0.59,0.889836,1.0249,0.897349
0.595,0.891367,1.0349,0.8965155
0.6,0.892614,1.0449,0.895553
0.605,0.89384,1.0549,0.8944445000000001
0.61,0.894306,1.0648,0.8938170000000001
0.615,0.895297,1.0748,0.892837
0.62,0.896221,1.0848,0.8925609999999999
0.625,0.897027,1.0948,0.892828
0.63,0.897725,1.1048,0.8923369999999999
0.635,0.898407,1.1148,0.8917660000000001
0.64,0.899059,1.1247,0.8914335
0.645,0.899815,1.1347,0.890782
0.65,0.900767,1.1447,0.890614
0.655,0.900954,1.1547,0.8897174999999999
0.66,0.903001,1.1647,0.889417
0.665,0.903094,1.1746,0.8889104999999999
0.67,0.904719,1.1846,0.8891335
0.675,0.906232,1.1946,0.888091
0.68,0.906387,1.2046,0.887953
0.685,0.907881,1.2146,0.887541
0.69,0.908303,1.2245,0.8874015
0.695,0.908271,1.2345,0.887456
0.7,0.909322,1.2445,0.8873409999999999
0.705,0.909122,1.2545,0.8873605
0.71,0.909941,1.2645,0.8872715
0.715,0.909631,1.2744,0.8876185
0.72,0.910534,1.2844,0.8876975
0.725,0.910115,1.2944,0.888298
0.73,0.910593,1.3044,0.8883335
0.735,0.911344,1.3144,0.8887735
0.74,0.912157,1.3244,0.8894435
0.745,0.911704,1.3343,0.889389
0.75,0.911082,1.3443,0.8903114999999999
0.755,0.912472,1.3543,0.891238
0.76,0.910184,1.3643,0.8914120000000001
0.765,0.9123,1.3743,0.8917505
0.77,0.912327,1.3842,0.8919895
0.775,0.912824,1.3942,0.892518
0.78,0.913315,1.4042,0.892554
0.785,0.91204,1.4142,0.8931895000000001
0.79,0.91358,1.4242,0.8944245
0.795,0.911514,1.4341,0.8965615
0.8,0.913409,1.4441,0.8970555
0.805,0.911833,1.4541,0.898136
0.81,0.912777,1.4641,0.8992165
0.815,0.911708,1.4741,0.9007704999999999
0.82,0.913096,1.484,0.9011465000000001
0.825,0.912818,1.494,0.9021585
0.83,0.910319,1.504,0.903225
0.835,0.911686,1.514,0.903796
0.84,0.911703,1.524,0.9053215
0.845,0.913032,1.534,0.9057729999999999
0.85,0.91246,1.5439,0.9064225
0.855,0.911221,1.5539,0.907075
0.86,0.912824,1.5639,0.9082785
0.865,0.912886,1.5739,0.9092915
0.87,0.913068,1.5839,0.9101505
0.875,0.913266,1.5938,0.910363
0.88,0.913115,1.6038,0.91101
0.885,0.912706,1.6138,0.9112125
0.89,0.912234,1.6238,0.9117735
0.895,0.912738,1.6338,0.9118785
0.9,0.912381,1.6437,0.9133985
0.905,0.910841,1.6537,0.9138465
0.91,0.910509,1.6637,0.915073
0.915,0.910286,1.6737,0.916688
0.92,0.909195,1.6837,0.9180655
0.925,0.908867,1.6936,0.9185585
0.93,0.908107,1.7036,0.9184705
0.935,0.90807,1.7136,0.9187005
0.94,0.906917,1.7236,0.918585
0.945,0.907209,1.7336,0.9184105
0.95,0.906011,1.7436,0.9183574999999999
0.955,0.906245,1.7535,0.9180440000000001
0.96,0.90482,1.7635,0.9184365
0.965,0.904859,1.7735,0.918876
0.97,0.903228,1.7835,0.9191715
0.975,0.903667,1.7935,0.9192389999999999
0.98,0.902217,1.8034,0.919338
0.985,0.902253,1.8134,0.9201385
0.99,0.901362,1.8234,0.920355
0.995,0.901048,1.8334,0.9205589999999999
1.0,0.900987,1.8434,0.9204395000000001
1.005,0.899747,1.8533,0.92023
1.01,0.898925,1.8633,0.9206275
1.015,0.898739,1.8733,0.9190045
1.02,0.897516,1.8833,0.919065
1.025,0.897182,1.8933,0.918363
1.03,0.896422,1.9032,0.9167879999999999
1.035,0.896609,1.9132,0.9161805000000001
1.04,0.895674,1.9232,0.915144
1.045,0.895432,1.9332,0.9157005
1.05,0.894533,1.9432,0.9159065
1.055,0.894356,1.9532,0.9164865
1.06,0.893754,1.9631,0.9165995
1.065,0.89388,1.9731,0.9169695
1.07,0.893085,1.9831,0.9174340000000001
1.075,0.892589,1.9931,0.9178554999999999
1.08,0.892353,2.0031,0.9188405
1.085,0.892769,2.013,0.9188035
1.09,0.892965,2.023,0.91852
1.095,0.892691,2.033,0.9190115
1.1,0.892508,2.043,0.9192005
1.105,0.892166,2.053,0.9191555
1.11,0.891865,2.0629,0.9186544999999999
1.115,0.891667,2.0729,0.9190365
1.12,0.891786,2.0829,0.9194445
1.125,0.891081,2.0929,0.9195955
1.13,0.890723,2.1029,0.9197675000000001
1.135,0.890841,2.1128,0.9196175
1.14,0.890625,2.1228,0.919605
1.145,0.890603,2.1328,0.9197500000000001
1.15,0.889703,2.1428,0.9189514999999999
1.155,0.889732,2.1528,0.9182255
1.16,0.889428,2.1628,0.9177355
1.165,0.889406,2.1727,0.9178415
1.17,0.888838,2.1827,0.917979
1.175,0.888983,2.1927,0.9187685
1.18,0.889109,2.2027,0.919002
1.185,0.889158,2.2127,0.9180545
1.19,0.88822,2.2226,0.918147
1.195,0.887962,2.2326,0.917538
1.2,0.888286,2.2426,0.917478
1.205,0.88762,2.2526,0.9185464999999999
1.21,0.887483,2.2626,0.9192024999999999
1.215,0.887599,2.2725,0.9196545
1.22,0.887321,2.2825,0.9201969999999999
1.225,0.887482,2.2925,0.921045
1.23,0.887409,2.3025,0.92152
1.235,0.887503,2.3125,0.9220345
1.24,0.887007,2.3224,0.9227055
1.245,0.887675,2.3324,0.923134
1.25,0.887315,2.3424,0.9232155
1.255,0.887406,2.3524,0.9236545
1.26,0.887284,2.3624,0.9227354999999999
1.265,0.887259,2.3724,0.9212119999999999
1.27,0.887362,2.3823,0.920619
1.275,0.887875,2.3923,0.9206019999999999
1.28,0.887845,2.4023,0.920595
1.285,0.88755,2.4123,0.9197845
1.29,0.888248,2.4223,0.9191435
1.295,0.888348,2.4322,0.918821
1.3,0.88833,2.4422,0.9183030000000001
1.305,0.888337,2.4522,0.9180085
1.31,0.888721,2.4622,0.9181995000000001
1.315,0.888826,2.4722,0.918213
1.32,0.889486,2.4821,0.9187535
1.325,0.889401,2.4921,0.919062
1.33,0.889254,2.5021,0.9205851428571429
1.335,0.889524,2.5121,0.920485375
1.34,0.890181,2.5221,0.9204688888888888
1.345,0.890442,2.532,0.9205773749999999
1.35,0.891436,2.542,0.92064475
1.355,0.89104,2.552,0.9206923750000001
1.36,0.891395,2.562,0.9207554285714284
1.365,0.891429,2.572,0.920709625
1.37,0.892174,2.5819,0.920727
1.375,0.891327,2.5919,0.9207047500000001
1.38,0.891614,2.6019,0.9204148571428572
1.385,0.892365,2.6119,0.9200623750000001
1.39,0.892831,2.6219,0.9197765000000001
1.395,0.892205,2.6319,0.9191825714285713
1.4,0.89245,2.6418,0.9183141428571429
1.405,0.892658,2.6518,0.91645825
1.41,0.892988,2.6618,0.9115272857142857
1.415,0.893391,2.6718,0.9022082857142857
1.42,0.893775,2.6818,0.8908264999999999
1.425,0.895074,2.6917,0.8822672857142857
1.43,0.896509,2.7017,0.8739292857142857
1.435,0.896614,2.7117,0.8640461428571429
1.44,0.897011,2.7217,0.8532621428571429
1.445,0.8971,2.7317,0.8409755714285714
1.45,0.897968,2.7416,0.8271544285714286
1.455,0.898304,2.7516,0.8134483333333332
1.46,0.899176,2.7616,0.8004490000000001
1.465,0.899257,2.7716,0.7880007142857142
1.47,0.900644,2.7816,0.7774868571428571
1.475,0.900897,2.7916,0.769146
1.48,0.900965,2.8015,0.7620287142857143
1.485,0.901328,2.8115,0.7556893333333333
1.49,0.901928,2.8215,0.7501730000000001
1.495,0.902389,2.8315,0.7451705
1.5,0.903146,2.8414,0.7406178571428572
1.505,0.903304,2.8514,0.7364916666666667
1.51,0.903548,2.8614,0.7329175000000001
1.515,0.904044,2.8714,0.7293281428571429
1.52,0.904827,2.8814,0.7262311666666666
1.525,0.905816,2.8914,0.7236750000000001
1.53,0.905792,2.9013,0.7215548333333334
1.535,0.905754,2.9113,0.719658
1.54,0.906497,2.9213,0.7181266666666667
1.545,0.906348,2.9313,0.7168078571428571
1.55,0.906523,2.9413,0.7158653333333334
1.555,0.907627,2.9513,0.7154224
1.56,0.907971,2.9612,0.7150545
1.565,0.908586,2.9712,0.7150596666666665
1.57,0.909174,2.9812,0.7153051666666667
1.575,0.909409,2.9912,0.7159235
1.58,0.910165,,
1.585,0.910136,,
1.59,0.910072,,
1.595,0.910654,,
1.6,0.910951,,
1.605,0.911069,,
1.61,0.910997,,
1.615,0.911428,,
1.62,0.91144,,
1.625,0.912107,,
1.63,0.911858,,
1.635,0.911899,,
1.64,0.912717,,
1.645,0.91408,,
1.65,0.914228,,
1.655,0.913465,,
1.66,0.914322,,
1.665,0.915824,,
1.67,0.916654,,
1.675,0.916722,,
1.68,0.917889,,
1.685,0.918242,,
1.69,0.91843,,
1.695,0.918687,,
1.7,0.918469,,
1.705,0.918472,,
1.71,0.918583,,
1.715,0.918818,,
1.72,0.918679,,
1.725,0.918491,,
1.73,0.918237,,
1.735,0.918584,,
1.74,0.918196,,
1.745,0.918519,,
1.75,0.918034,,
1.755,0.918054,,
1.76,0.91805,,
1.765,0.918823,,
1.77,0.918726,,
1.775,0.919026,,
1.78,0.919093,,
1.785,0.91925,,
1.79,0.919743,,
1.795,0.918735,,
1.8,0.919631,,
1.805,0.919045,,
1.81,0.920048,,
1.815,0.920229,,
1.82,0.92054,,
1.825,0.92017,,
1.83,0.920959,,
1.835,0.920159,,
1.84,0.920508,,
1.845,0.920371,,
1.85,0.920176,,
1.855,0.920284,,
1.86,0.921444,,
1.865,0.919811,,
1.87,0.918097,,
1.875,0.919912,,
1.88,0.920033,,
1.885,0.918097,,
1.89,0.918573,,
1.895,0.918153,,
1.9,0.916868,,
1.905,0.916708,,
1.91,0.916904,,
1.915,0.915457,,
1.92,0.915272,,
1.925,0.915016,,
1.93,0.915322,,
1.935,0.916079,,
1.94,0.915575,,
1.945,0.916238,,
1.95,0.916358,,
1.955,0.916615,,
1.96,0.916618,,
1.965,0.916581,,
1.97,0.917215,,
1.975,0.916724,,
1.98,0.917406,,
1.985,0.917462,,
1.99,0.917689,,
1.995,0.918022,,
2.0,0.918882,,
2.005,0.918799,,
2.01,0.918486,,
2.015,0.919121,,
2.02,0.918489,,
2.025,0.918551,,
2.03,0.918995,,
2.035,0.919028,,
2.04,0.919068,,
2.045,0.919333,,
2.05,0.919099,,
2.055,0.919212,,
2.06,0.918713,,
2.065,0.918596,,
2.07,0.918903,,
2.075,0.91917,,
2.08,0.919302,,
2.085,0.919587,,
2.09,0.9193,,
2.095,0.919891,,
2.1,0.919722,,
2.105,0.919813,,
2.11,0.919444,,
2.115,0.919791,,
2.12,0.919755,,
2.125,0.919455,,
2.13,0.919834,,
2.135,0.919666,,
2.14,0.919423,,
2.145,0.91848,,
2.15,0.918556,,
2.155,0.917895,,
2.16,0.917762,,
2.165,0.917709,,
2.17,0.918095,,
2.175,0.917588,,
2.18,0.918138,,
2.185,0.91782,,
2.19,0.918926,,
2.195,0.918611,,
2.2,0.919318,,
2.205,0.918686,,
2.21,0.918047,,
2.215,0.918062,,
2.22,0.917857,,
2.225,0.918437,,
2.23,0.917245,,
2.235,0.917831,,
2.24,0.917607,,
2.245,0.917349,,
2.25,0.918683,,
2.255,0.91841,,
2.26,0.919202,,
2.265,0.919203,,
2.27,0.919354,,
2.275,0.919955,,
2.28,0.919831,,
2.285,0.920563,,
2.29,0.920842,,
2.295,0.921248,,
2.3,0.920785,,
2.305,0.922255,,
2.31,0.922095,,
2.315,0.921974,,
2.32,0.922638,,
2.325,0.922773,,
2.33,0.923089,,
2.335,0.923179,,
2.34,0.923163,,
2.345,0.923268,,
2.35,0.923586,,
2.355,0.923723,,
2.36,0.92265,,
2.365,0.922821,,
2.37,0.921318,,
2.375,0.921106,,
2.38,0.920754,,
2.385,0.920484,,
2.39,0.920801,,
2.395,0.920403,,
2.4,0.920793,,
2.405,0.920397,,
2.41,0.920328,,
2.415,0.919241,,
2.42,0.919326,,
2.425,0.918961,,
2.43,0.918508,,
2.435,0.919134,,
2.44,0.917926,,
2.445,0.91868,,
2.45,0.917863,,
2.455,0.918154,,
2.46,0.918176,,
2.465,0.918223,,
2.47,0.918413,,
2.475,0.918013,,
2.48,0.919038,,
2.485,0.918469,,
2.49,0.919112,,
2.495,0.919012,,
2.5,0.920649,,
2.5002,0.920653,,
2.50141,0.920582,,
2.50262,0.920515,,
2.50383,0.920578,,
2.50503,0.920583,,
2.50625,0.920536,,
2.50746,0.920537,,
2.50867,0.920486,,
2.50989,0.920462,,
2.5111,0.920484,,
2.5123200000000003,0.920493,,
2.5135300000000003,0.920458,,
2.51475,0.920473,,
2.51597,0.92049,,
2.5171900000000003,0.920512,,
2.51842,0.920488,,
2.51964,0.920475,,
2.52087,0.920469,,
2.52209,0.920471,,
2.52332,0.920499,,
2.52455,0.920488,,
2.52578,0.920435,,
2.52701,0.920383,,
2.52824,0.920446,,
2.52947,0.920537,,
2.53071,0.920629,,
2.53194,0.92069,,
2.5331799999999998,0.920629,,
2.53442,0.920525,,
2.53566,0.920558,,
2.5369,0.920605,,
2.53814,0.920616,,
2.53938,0.920605,,
2.54063,0.920574,,
2.54187,0.920616,,
2.54312,0.920719,,
2.54437,0.920685,,
2.54562,0.920664,,
2.5468699999999997,0.920679,,
2.54812,0.920672,,
2.5493699999999997,0.920673,,
2.55063,0.920683,,
2.55188,0.920725,,
2.55314,0.920753,,
2.5543899999999997,0.920686,,
2.55565,0.920664,,
2.55691,0.920683,,
2.55817,0.920708,,
2.55944,0.920696,,
2.5606999999999998,0.920712,,
2.5619699999999996,0.920813,,
2.56323,0.920806,,
2.5645,0.920786,,
2.56577,0.920767,,
2.56704,0.920624,,
2.56831,0.920639,,
2.5695799999999998,0.920754,,
2.57086,0.92073,,
2.57213,0.920651,,
2.57341,0.920787,,
2.57469,0.920782,,
2.57597,0.92071,,
2.57725,0.920734,,
2.57853,0.920666,,
2.57981,0.920679,,
2.5810999999999997,0.920734,,
2.58238,0.920685,,
2.58367,0.920787,,
2.58496,0.920852,,
2.5862399999999997,0.920679,,
2.58754,0.920653,,
2.5888299999999997,0.920679,,
2.5901199999999998,0.920659,,
2.5914099999999998,0.92051,,
2.59271,0.920446,,
2.5940100000000004,0.920697,,
2.59531,0.921069,,
2.5966,0.920925,,
2.5979099999999997,0.920552,,
2.5992100000000002,0.920365,,
2.6005100000000003,0.920363,,
2.60182,0.92037,,
2.60312,0.920348,,
2.60443,0.920378,,
2.60574,0.920528,,
2.60705,0.92048,,
2.6083600000000002,0.920223,,
2.60967,0.920093,,
2.6109899999999997,0.920045,,
2.6123000000000003,0.91992,,
2.61362,0.919898,,
2.6149400000000003,0.919883,,
2.61626,0.919957,,
2.61758,0.920038,,
2.6189,0.919903,,
2.6202199999999998,0.919927,,
2.62155,0.919959,,
2.62287,0.919683,,
2.6241999999999996,0.919503,,
2.6255300000000004,0.919558,,
2.62686,0.919641,,
2.62819,0.919446,,
2.62952,0.919334,,
2.63086,0.919418,,
2.63219,0.919297,,
2.6335300000000004,0.919058,,
2.63487,0.918935,,
2.63621,0.91879,,
2.63755,0.918637,,
2.63889,0.91856,,
2.64023,0.918472,,
2.64158,0.918347,,
2.64293,0.918249,,
2.64427,0.918071,,
2.64562,0.917863,,
2.6469699999999996,0.917672,,
2.64832,0.91745,,
2.64968,0.91711,,
2.65103,0.916718,,
2.65239,0.916376,,
2.65375,0.916007,,
2.6551,0.915455,,
2.65646,0.914878,,
2.65783,0.914136,,
2.65919,0.913331,,
2.66055,0.912491,,
2.6619200000000003,0.911653,,
2.66329,0.910669,,
2.66466,0.909732,,
2.66603,0.908679,,
2.6674,0.907438,,
2.66877,0.905933,,
2.67014,0.904468,,
2.67152,0.902626,,
2.6729000000000003,0.900206,,
2.67427,0.898197,,
2.67565,0.89659,,
2.67704,0.895232,,
2.67842,0.893935,,
2.6798,0.892718,,
2.68119,0.891442,,
2.6825799999999997,0.890183,,
2.68396,0.888959,,
2.68535,0.887687,,
2.68675,0.886456,,
2.6881399999999998,0.885313,,
2.6895300000000004,0.884247,,
2.69093,0.883232,,
2.69233,0.882267,,
2.69372,0.881355,,
2.6951199999999997,0.880324,,
2.69653,0.879133,,
2.69793,0.877898,,
2.69933,0.87656,,
2.7007399999999997,0.875233,,
2.70215,0.874029,,
2.70356,0.872713,,
2.70497,0.871276,,
2.7063800000000002,0.869796,,
2.70779,0.868339,,
2.70921,0.866975,,
2.71062,0.865657,,
2.71204,0.864306,,
2.71346,0.862612,,
2.71488,0.860976,,
2.7163000000000004,0.859458,,
2.71772,0.857947,,
2.71915,0.856484,,
2.72058,0.855043,,
2.722,0.853325,,
2.72343,0.851656,,
2.72486,0.850093,,
2.7263,0.848287,,
2.72773,0.846506,,
2.72917,0.844692,,
2.7306,0.842815,,
2.73204,0.841001,,
2.73348,0.839152,,
2.73493,0.837305,,
2.73637,0.835358,,
2.73781,0.833305,,
2.7392600000000003,0.831458,,
2.74071,0.829528,,
2.7421599999999997,0.827291,,
2.7436100000000003,0.824998,,
2.74506,0.82279,,
2.7465100000000002,0.820711,,
2.7479699999999996,0.818631,,
2.74943,0.81655,,
2.75089,0.814402,,
2.7523400000000002,0.812308,,
2.75381,0.810343,,
2.75527,0.808456,,
2.75673,0.806392,,
2.7582,0.804212,,
2.7596700000000003,0.802216,,
2.7611399999999997,0.800306,,
2.76261,0.79847,,
2.76408,0.796665,,
2.76556,0.794882,,
2.76703,0.793133,,
2.76851,0.791374,,
2.76999,0.789607,,
2.77147,0.787927,,
2.77295,0.786262,,
2.7744299999999997,0.78461,,
2.77592,0.783092,,
2.7774099999999997,0.781673,,
2.77889,0.780191,,
2.78038,0.778738,,
2.78188,0.777427,,
2.7833699999999997,0.776122,,
2.78486,0.774758,,
2.78636,0.773499,,
2.7878600000000002,0.772281,,
2.7893600000000003,0.770989,,
2.7908600000000003,0.769684,,
2.79236,0.768493,,
2.79387,0.767285,,
2.7953699999999997,0.766144,,
2.7968800000000003,0.765081,,
2.79839,0.764026,,
2.7999,0.762968,,
2.8014099999999997,0.761951,,
2.80293,0.761012,,
2.80444,0.76009,,
2.8059600000000002,0.759073,,
2.80748,0.758046,,
2.809,0.757095,,
2.81052,0.756143,,
2.81205,0.755212,,
2.8135700000000003,0.75427,,
2.8150999999999997,0.75337,,
2.81663,0.752537,,
2.8181599999999998,0.751774,,
2.81969,0.750946,,
2.82123,0.750074,,
2.82276,0.749389,,
2.8243,0.748668,,
2.8258400000000004,0.747823,,
2.8273800000000002,0.747018,,
2.82892,0.746224,,
2.8304699999999996,0.745476,,
2.8320100000000004,0.744831,,
2.83356,0.744145,,
2.8351100000000002,0.743329,,
2.8366599999999997,0.742605,,
2.83821,0.741985,,
2.83977,0.741293,,
2.84132,0.740587,,
2.84288,0.739914,,
2.84444,0.739295,,
2.846,0.738646,,
2.84757,0.737968,,
2.84913,0.737368,,
2.8507,0.736773,,
2.8522600000000002,0.736247,,
2.85383,0.735637,,
2.8554,0.734957,,
2.85698,0.734347,,
2.85855,0.733832,,
2.8601300000000003,0.73322,,
2.86171,0.73259,,
2.86329,0.732033,,
2.86487,0.731483,,
2.86645,0.73089,,
2.86804,0.730307,,
2.86963,0.729768,,
2.8712199999999997,0.729294,,
2.87281,0.728838,,
2.8744,0.728338,,
2.87599,0.727862,,
2.87759,0.727414,,
2.87919,0.726921,,
2.88079,0.72642,,
2.88239,0.72601,,
2.88399,0.725539,,
2.8855999999999997,0.725083,,
2.8872,0.724705,,
2.88881,0.724295,,
2.89042,0.723859,,
2.89203,0.723402,,
2.89365,0.723047,,
2.8952600000000004,0.722742,,
2.89688,0.722387,,
2.8985,0.722058,,
2.90012,0.721755,,
2.9017399999999998,0.721433,,
2.90337,0.721044,,
2.9049899999999997,0.720652,,
2.9066199999999998,0.720375,,
2.90825,0.720108,,
2.9098800000000002,0.719854,,
2.91152,0.71954,,
2.91315,0.71918,,
2.91479,0.718891,,
2.9164299999999996,0.71866,,
2.91807,0.718503,,
2.91972,0.718253,,
2.92136,0.717991,,
2.92301,0.717776,,
2.92466,0.717577,,
2.92631,0.717421,,
2.92796,0.717193,,
2.9296100000000003,0.716998,,
2.93127,0.716822,,
2.93293,0.716653,,
2.93459,0.716401,,
2.93625,0.716167,,
2.93791,0.71609,,
2.93958,0.716053,,
2.9412399999999996,0.715945,,
2.94291,0.715831,,
2.9445900000000003,0.715675,,
2.94626,0.715598,,
2.94793,0.71552,,
2.9496100000000003,0.715495,,
2.9512899999999997,0.715447,,
2.9529699999999997,0.715359,,
2.95465,0.715291,,
2.95634,0.715193,,
2.95802,0.715123,,
2.95971,0.715037,,
2.9614000000000003,0.714969,,
2.9630900000000002,0.714973,,
2.96479,0.715032,,
2.9664800000000002,0.715048,,
2.96818,0.715061,,
2.9698800000000003,0.715079,,
2.97158,0.715068,,
2.97329,0.715041,,
2.9749899999999996,0.715061,,
2.9766999999999997,0.715074,,
2.97841,0.715123,,
2.98012,0.715296,,
2.98184,0.715429,,
2.98355,0.715447,,
2.98527,0.715462,,
2.9869899999999996,0.715655,,
2.98871,0.715813,,
2.99043,0.715813,,
2.9921599999999997,0.715881,,
2.99389,0.716109,,
2.9956199999999997,0.71627,,
2.99735,0.716342,,
2.9990799999999997,0.716467,,
3.00082,0.716575,,
3.0025500000000003,0.716715,,
3.00429,0.716853,,
3.00604,0.716958,,
3.0077800000000003,0.71714,,
3.0095300000000003,0.717391,,
3.01127,0.717482,,
3.01302,0.717641,,
3.01477,0.717833,,
3.0165300000000004,0.717906,,
3.0182800000000003,0.718051,,
3.02004,0.718206,,
3.0218000000000003,0.718318,,
3.02356,0.718402,,
3.02533,0.718535,,
3.0270900000000003,0.718663,,
3.0288600000000003,0.718755,,
3.03063,0.718889,,
3.03241,0.718943,,
3.0341799999999997,0.719038,,
3.03596,0.719294,,
3.03773,0.71945,,
3.03952,0.7195,,
