Wavelength (µm),BKR1KW003E anorthite Kierra <45µm heated 650 °C under vacuum,Wavelength (µm) target,BKR1KW003E anorthite Kierra <45µm heated 650 °C under vacuum target
0.3,0.334436,0.44602,0.729873
0.305,0.393323,0.456,0.736358
0.31,0.454611,0.46598,0.7431425
0.315,0.507841,0.47596,0.7491735
0.32,0.553444,0.48595,0.7543815
0.325,0.582792,0.49593,0.7601825
0.33,0.609282,0.50591,0.7651680000000001
0.335,0.625392,0.51589,0.7698849999999999
0.34,0.638229,0.52587,0.7755160000000001
0.345,0.64687,0.53585,0.781207
0.35,0.654768,0.54583,0.786968
0.355,0.659558,0.55581,0.793085
0.36,0.667504,0.56579,0.7998845
0.365,0.670507,0.57577,0.805891
0.37,0.676361,0.58576,0.8116639999999999
0.375,0.676826,0.59574,0.8164125
0.38,0.676857,0.60572,0.8206205
0.385,0.677041,0.6157,0.823655
0.39,0.684624,0.62568,0.8270065
0.395,0.692138,0.63566,0.8299145
0.4,0.699912,0.64564,0.8330124999999999
0.405,0.702106,0.65562,0.836412
0.41,0.707863,0.6656,0.839925
0.415,0.708749,0.67558,0.843259
0.42,0.712357,0.68556,0.8462805
0.425,0.71444,0.69555,0.8487180000000001
0.43,0.719872,0.70553,0.8510880000000001
0.435,0.722026,0.71551,0.8537535
0.44,0.725804,0.72549,0.8560559999999999
0.445,0.727883,0.73547,0.8589085000000001
0.45,0.731863,0.74545,0.8618545
0.455,0.733995,0.75543,0.8639479999999999
0.46,0.738721,0.76541,0.8656079999999999
0.465,0.741468,0.77539,0.867182
0.47,0.744817,0.78537,0.868471
0.475,0.747496,0.79536,0.8698735
0.48,0.750851,0.80534,0.8714295000000001
0.485,0.752767,0.81532,0.8725045
0.49,0.755996,0.8253,0.8740095
0.495,0.75811,0.83528,0.8739775000000001
0.5,0.762255,0.84526,0.8763885
0.505,0.763359,0.85524,0.877401
0.51,0.766977,0.86522,0.8778969999999999
0.515,0.768331,0.8752,0.878575
0.52,0.771439,0.88518,0.8778265000000001
0.525,0.77402,0.89517,0.878154
0.53,0.777012,0.90515,0.878555
0.535,0.779422,0.91513,0.8790005000000001
0.54,0.782992,0.92511,0.8789530000000001
0.545,0.785404,0.93509,0.879218
0.55,0.788532,0.94507,0.8793055000000001
0.555,0.791383,0.95505,0.879448
0.56,0.794787,0.96503,0.8798265000000001
0.565,0.798098,0.97501,0.8798125
0.57,0.801671,0.98499,0.87928
0.575,0.804119,0.99497,0.879644
0.58,0.807663,1.005,0.8793835000000001
0.585,0.810237,1.0149,0.87966
0.59,0.813091,1.0249,0.8794565
0.595,0.815185,1.0349,0.879471
0.6,0.81764,1.0449,0.8792305
0.605,0.819997,1.0549,0.8792335
0.61,0.821244,1.0648,0.879394
0.615,0.823183,1.0748,0.8792215
0.62,0.824127,1.0848,0.8794455
0.625,0.826431,1.0948,0.8802395000000001
0.63,0.827582,1.1048,0.8808085
0.635,0.829395,1.1148,0.880961
0.64,0.830434,1.1247,0.88123
0.645,0.8325,1.1347,0.8811709999999999
0.65,0.833525,1.1447,0.8813745
0.655,0.835644,1.1547,0.8814235
0.66,0.83718,1.1647,0.881685
0.665,0.839012,1.1746,0.882082
0.67,0.840838,1.1846,0.8820045
0.675,0.842743,1.1946,0.88201
0.68,0.843775,1.2046,0.8821335
0.685,0.845737,1.2146,0.881887
0.69,0.846824,1.2245,0.8822675
0.695,0.84777,1.2345,0.8824725
0.7,0.849666,1.2445,0.882846
0.705,0.850827,1.2545,0.8830965
0.71,0.851349,1.2645,0.8828320000000001
0.715,0.853883,1.2744,0.8837250000000001
0.72,0.853624,1.2844,0.884
0.725,0.856022,1.2944,0.8846195
0.73,0.85609,1.3044,0.8850245
0.735,0.858589,1.3144,0.885518
0.74,0.859228,1.3244,0.8865055
0.745,0.860862,1.3343,0.886826
0.75,0.862847,1.3443,0.8876854999999999
0.755,0.863502,1.3543,0.888227
0.76,0.864394,1.3643,0.888493
0.765,0.865255,1.3743,0.888352
0.77,0.865961,1.3842,0.8889285
0.775,0.867227,1.3942,0.8897744999999999
0.78,0.867137,1.4042,0.890204
0.785,0.868523,1.4142,0.8906365
0.79,0.868419,1.4242,0.891703
0.795,0.869692,1.4341,0.8934815
0.8,0.870055,1.4441,0.894276
0.805,0.871745,1.4541,0.8948575
0.81,0.871114,1.4641,0.896335
0.815,0.87264,1.4741,0.8970905
0.82,0.872369,1.484,0.89783
0.825,0.873464,1.494,0.8985045
0.83,0.874555,1.504,0.8992865
0.835,0.873133,1.514,0.899816
0.84,0.874822,1.524,0.9010670000000001
0.845,0.876318,1.534,0.90098
0.85,0.876459,1.5439,0.9024675
0.855,0.876719,1.5539,0.9025845
0.86,0.878083,1.5639,0.9034774999999999
0.865,0.877204,1.5739,0.9041625
0.87,0.87859,1.5839,0.905315
0.875,0.87808,1.5938,0.905745
0.88,0.87907,1.6038,0.9062985
0.885,0.877188,1.6138,0.906845
0.89,0.878465,1.6238,0.907305
0.895,0.877729,1.6338,0.9072515000000001
0.9,0.878579,1.6437,0.9085435
0.905,0.877925,1.6537,0.9093344999999999
0.91,0.879185,1.6637,0.9110065
0.915,0.878622,1.6737,0.9120455000000001
0.92,0.879379,1.6837,0.9135265
0.925,0.878449,1.6936,0.914207
0.93,0.879457,1.7036,0.914158
0.935,0.878997,1.7136,0.914717
0.94,0.879439,1.7236,0.914885
0.945,0.878611,1.7336,0.9144384999999999
0.95,0.88,1.7436,0.91438
0.955,0.879151,1.7535,0.9141855
0.96,0.879745,1.7635,0.9147505
0.965,0.879355,1.7735,0.9149695
0.97,0.880298,1.7835,0.914984
0.975,0.879515,1.7935,0.9151724999999999
0.98,0.88011,1.8034,0.9152899999999999
0.985,0.87928,1.8134,0.915902
0.99,0.879979,1.8234,0.916274
0.995,0.879309,1.8334,0.916383
1.0,0.879368,1.8434,0.9164315000000001
1.005,0.879399,1.8533,0.9165179999999999
1.01,0.879899,1.8633,0.9164755
1.015,0.879421,1.8733,0.9154655
1.02,0.879817,1.8833,0.9161965
1.025,0.879096,1.8933,0.9160035
1.03,0.879728,1.9032,0.9150149999999999
1.035,0.879214,1.9132,0.914935
1.04,0.879448,1.9232,0.9141245
1.045,0.879013,1.9332,0.915224
1.05,0.879322,1.9432,0.9153025
1.055,0.879145,1.9532,0.915881
1.06,0.879599,1.9631,0.9160699999999999
1.065,0.879189,1.9731,0.9164055
1.07,0.879664,1.9831,0.9166939999999999
1.075,0.878779,1.9931,0.917104
1.08,0.87922,2.0031,0.9176305
1.085,0.879671,2.013,0.917969
1.09,0.879951,2.023,0.917915
1.095,0.880528,2.033,0.9184295
1.1,0.881027,2.043,0.9180714999999999
1.105,0.88059,2.053,0.9182859999999999
1.11,0.881121,2.0629,0.9176930000000001
1.115,0.880801,2.0729,0.9180455000000001
1.12,0.881659,2.0829,0.918491
1.125,0.880801,2.0929,0.918382
1.13,0.880934,2.1029,0.9182135
1.135,0.881408,2.1128,0.9185625
1.14,0.881704,2.1228,0.9186350000000001
1.145,0.881045,2.1328,0.9185795
1.15,0.88177,2.1428,0.9180265000000001
1.155,0.881077,2.1528,0.9175495
1.16,0.881635,2.1628,0.9175774999999999
1.165,0.881735,2.1727,0.9174005000000001
1.17,0.882111,2.1827,0.9180455000000001
1.175,0.882053,2.1927,0.9185665000000001
1.18,0.882477,2.2027,0.918751
1.185,0.881532,2.2127,0.9185765
1.19,0.882181,2.2226,0.9187635000000001
1.195,0.881839,2.2326,0.9186855
1.2,0.882418,2.2426,0.9186105
1.205,0.881849,2.2526,0.9193614999999999
1.21,0.881998,2.2626,0.9196165
1.215,0.881776,2.2725,0.9205135
1.22,0.88199,2.2825,0.9213075
1.225,0.882545,2.2925,0.9219284999999999
1.23,0.882542,2.3025,0.9228449999999999
1.235,0.882403,2.3125,0.9236275
1.24,0.882845,2.3224,0.924203
1.245,0.882847,2.3324,0.9247110000000001
1.25,0.882843,2.3424,0.9253765
1.255,0.88335,2.3524,0.925352
1.26,0.88298,2.3624,0.9246615
1.265,0.882684,2.3724,0.9232735000000001
1.27,0.883765,2.3823,0.922721
1.275,0.883685,2.3923,0.9228585
1.28,0.883963,2.4023,0.9230430000000001
1.285,0.884037,2.4123,0.9229445000000001
1.29,0.884498,2.4223,0.9226080000000001
1.295,0.884741,2.4322,0.9228305
1.3,0.884962,2.4422,0.922554
1.305,0.885087,2.4522,0.9223574999999999
1.31,0.885469,2.4622,0.9227810000000001
1.315,0.885567,2.4722,0.9228434999999999
1.32,0.886425,2.4821,0.9240124999999999
1.325,0.886586,2.4921,0.9239485000000001
1.33,0.886602,2.5021,0.9248321428571428
1.335,0.88705,2.5121,0.9248521249999999
1.34,0.8874,2.5221,0.9249275555555556
1.345,0.887971,2.532,0.9250313750000001
1.35,0.888048,2.542,0.9251692499999999
1.355,0.888406,2.552,0.9252816250000001
1.36,0.888436,2.562,0.9253795714285715
1.365,0.88855,2.572,0.9254615
1.37,0.888646,2.5819,0.925531125
1.375,0.888058,2.5919,0.925652125
1.38,0.888494,2.6019,0.9253034285714286
1.385,0.889363,2.6119,0.9251735
1.39,0.889867,2.6219,0.92504825
1.395,0.889682,2.6319,0.9247378571428572
1.4,0.890121,2.6418,0.9241144285714286
1.405,0.890287,2.6518,0.9230943750000001
1.41,0.890434,2.6618,0.9198940000000001
1.415,0.890839,2.6718,0.9125015714285715
1.42,0.891128,2.6818,0.904687375
1.425,0.892278,2.6917,0.9009355714285714
1.43,0.893401,2.7017,0.89888
1.435,0.893562,2.7117,0.8963978571428571
1.44,0.894164,2.7217,0.8932325714285714
1.445,0.894388,2.7317,0.8886610000000001
1.45,0.894613,2.7416,0.8830762857142856
1.455,0.895102,2.7516,0.8768731666666666
1.46,0.89621,2.7616,0.8706455714285715
1.465,0.89646,2.7716,0.864098
1.47,0.896792,2.7816,0.8583331428571428
1.475,0.897389,2.7916,0.8536565
1.48,0.897745,2.8015,0.8494817142857143
1.485,0.897915,2.8115,0.8457263333333334
1.49,0.898274,2.8215,0.8420654285714286
1.495,0.898735,2.8315,0.8388028333333334
1.5,0.899227,2.8414,0.8357468571428572
1.505,0.899346,2.8514,0.8328465
1.51,0.899614,2.8614,0.8303921666666666
1.515,0.900018,2.8714,0.827794857142857
1.52,0.90039,2.8814,0.8254315000000001
1.525,0.901744,2.8914,0.8234048333333334
1.53,0.900742,2.9013,0.8216923333333334
1.535,0.901218,2.9113,0.8201498333333332
1.54,0.901914,2.9213,0.8190006666666667
1.545,0.903021,2.9313,0.8177334285714286
1.55,0.901957,2.9413,0.8169399999999999
1.555,0.903212,2.9513,0.8164676
1.56,0.903304,2.9612,0.8162111666666667
1.565,0.903651,2.9712,0.8161553333333332
1.57,0.903925,2.9812,0.8162568333333334
1.575,0.9044,2.9912,0.8164726666666667
1.58,0.905118,,
1.585,0.905512,,
1.59,0.905626,,
1.595,0.905864,,
1.6,0.906365,,
1.605,0.906232,,
1.61,0.906568,,
1.615,0.907122,,
1.62,0.907209,,
1.625,0.907401,,
1.63,0.907124,,
1.635,0.907379,,
1.64,0.907981,,
1.645,0.909106,,
1.65,0.909353,,
1.655,0.909316,,
1.66,0.910217,,
1.665,0.911796,,
1.67,0.911898,,
1.675,0.912193,,
1.68,0.913177,,
1.685,0.913876,,
1.69,0.91418,,
1.695,0.914234,,
1.7,0.913778,,
1.705,0.914538,,
1.71,0.914596,,
1.715,0.914838,,
1.72,0.914917,,
1.725,0.914853,,
1.73,0.9147,,
1.735,0.914177,,
1.74,0.914142,,
1.745,0.914618,,
1.75,0.914164,,
1.755,0.914207,,
1.76,0.914366,,
1.765,0.915135,,
1.77,0.914764,,
1.775,0.915175,,
1.78,0.914881,,
1.785,0.915087,,
1.79,0.915627,,
1.795,0.914718,,
1.8,0.915142,,
1.805,0.915438,,
1.81,0.915208,,
1.815,0.916596,,
1.82,0.915944,,
1.825,0.916604,,
1.83,0.916592,,
1.835,0.916174,,
1.84,0.916485,,
1.845,0.916378,,
1.85,0.916428,,
1.855,0.916608,,
1.86,0.917225,,
1.865,0.915726,,
1.87,0.914616,,
1.875,0.916315,,
1.88,0.91667,,
1.885,0.915723,,
1.89,0.916165,,
1.895,0.915842,,
1.9,0.914966,,
1.905,0.915064,,
1.91,0.915442,,
1.915,0.914428,,
1.92,0.914357,,
1.925,0.913892,,
1.93,0.915347,,
1.935,0.915101,,
1.94,0.914926,,
1.945,0.915679,,
1.95,0.915815,,
1.955,0.915947,,
1.96,0.916165,,
1.965,0.915975,,
1.97,0.916383,,
1.975,0.916428,,
1.98,0.91658,,
1.985,0.916808,,
1.99,0.916683,,
1.995,0.917525,,
2.0,0.917646,,
2.005,0.917615,,
2.01,0.917582,,
2.015,0.918356,,
2.02,0.917689,,
2.025,0.918141,,
2.03,0.918584,,
2.035,0.918275,,
2.04,0.918022,,
2.045,0.918121,,
2.05,0.918183,,
2.055,0.918389,,
2.06,0.917625,,
2.065,0.917761,,
2.07,0.918124,,
2.075,0.917967,,
2.08,0.918258,,
2.085,0.918724,,
2.09,0.917991,,
2.095,0.918773,,
2.1,0.918103,,
2.105,0.918324,,
2.11,0.918415,,
2.115,0.91871,,
2.12,0.918838,,
2.125,0.918432,,
2.13,0.918762,,
2.135,0.918397,,
2.14,0.917996,,
2.145,0.918057,,
2.15,0.917876,,
2.155,0.917223,,
2.16,0.917392,,
2.165,0.917763,,
2.17,0.917259,,
2.175,0.917542,,
2.18,0.918133,,
2.185,0.917958,,
2.19,0.918223,,
2.195,0.91891,,
2.2,0.918253,,
2.205,0.919249,,
2.21,0.91813,,
2.215,0.919023,,
2.22,0.918523,,
2.225,0.919004,,
2.23,0.918671,,
2.235,0.9187,,
2.24,0.918707,,
2.245,0.918514,,
2.25,0.919368,,
2.255,0.919355,,
2.26,0.91924,,
2.265,0.919993,,
2.27,0.920337,,
2.275,0.92069,,
2.28,0.92117,,
2.285,0.921445,,
2.29,0.921704,,
2.295,0.922153,,
2.3,0.922662,,
2.305,0.923028,,
2.31,0.923439,,
2.315,0.923816,,
2.32,0.924046,,
2.325,0.92436,,
2.33,0.924596,,
2.335,0.924826,,
2.34,0.925271,,
2.345,0.925482,,
2.35,0.925345,,
2.355,0.925359,,
2.36,0.924975,,
2.365,0.924348,,
2.37,0.923455,,
2.375,0.923092,,
2.38,0.922922,,
2.385,0.92252,,
2.39,0.92274,,
2.395,0.922977,,
2.4,0.923271,,
2.405,0.922815,,
2.41,0.923159,,
2.415,0.92273,,
2.42,0.922637,,
2.425,0.922579,,
2.43,0.922678,,
2.435,0.922983,,
2.44,0.922068,,
2.445,0.92304,,
2.45,0.922123,,
2.455,0.922592,,
2.46,0.922621,,
2.465,0.922941,,
2.47,0.922519,,
2.475,0.923168,,
2.48,0.924078,,
2.485,0.923947,,
2.49,0.923901,,
2.495,0.923996,,
2.5,0.924874,,
2.5002,0.924873,,
2.50141,0.924828,,
2.50262,0.924815,,
2.50383,0.924826,,
2.50503,0.924815,,
2.50625,0.924794,,
2.50746,0.924794,,
2.50867,0.924806,,
2.50989,0.924873,,
2.5111,0.924921,,
2.5123200000000003,0.924878,,
2.5135300000000003,0.924837,,
2.51475,0.924837,,
2.51597,0.924871,,
2.5171900000000003,0.924925,,
2.51842,0.924929,,
2.51964,0.924959,,
2.52087,0.924951,,
2.52209,0.924895,,
2.52332,0.924914,,
2.52455,0.924914,,
2.52578,0.924945,,
2.52701,0.924916,,
2.52824,0.924891,,
2.52947,0.924992,,
2.53071,0.925046,,
2.53194,0.925052,,
2.5331799999999998,0.925052,,
2.53442,0.925042,,
2.53566,0.925061,,
2.5369,0.925115,,
2.53814,0.925152,,
2.53938,0.925164,,
2.54063,0.925156,,
2.54187,0.92513,,
2.54312,0.925203,,
2.54437,0.925164,,
2.54562,0.925143,,
2.5468699999999997,0.925242,,
2.54812,0.925303,,
2.5493699999999997,0.925262,,
2.55063,0.925227,,
2.55188,0.925277,,
2.55314,0.925369,,
2.5543899999999997,0.925339,,
2.55565,0.925251,,
2.55691,0.925225,,
2.55817,0.925218,,
2.55944,0.925212,,
2.5606999999999998,0.925348,,
2.5619699999999996,0.925482,,
2.56323,0.925494,,
2.5645,0.925475,,
2.56577,0.925428,,
2.56704,0.925331,,
2.56831,0.925337,,
2.5695799999999998,0.925468,,
2.57086,0.925453,,
2.57213,0.925415,,
2.57341,0.92563,,
2.57469,0.925574,,
2.57597,0.925484,,
2.57725,0.925503,,
2.57853,0.925456,,
2.57981,0.925436,,
2.5810999999999997,0.925449,,
2.58238,0.925482,,
2.58367,0.925717,,
2.58496,0.925716,,
2.5862399999999997,0.92549,,
2.58754,0.925548,,
2.5888299999999997,0.925566,,
2.5901199999999998,0.925473,,
2.5914099999999998,0.925354,,
2.59271,0.925359,,
2.5940100000000004,0.925777,,
2.59531,0.926234,,
2.5966,0.925906,,
2.5979099999999997,0.925378,,
2.5992100000000002,0.925149,,
2.6005100000000003,0.925179,,
2.60182,0.925214,,
2.60312,0.925246,,
2.60443,0.925384,,
2.60574,0.925574,,
2.60705,0.925451,,
2.6083600000000002,0.925248,,
2.60967,0.925212,,
2.6109899999999997,0.925167,,
2.6123000000000003,0.925024,,
2.61362,0.925026,,
2.6149400000000003,0.925057,,
2.61626,0.925203,,
2.61758,0.925281,,
2.6189,0.925123,,
2.6202199999999998,0.925264,,
2.62155,0.925236,,
2.62287,0.924845,,
2.6241999999999996,0.924731,,
2.6255300000000004,0.924871,,
2.62686,0.925035,,
2.62819,0.92486,,
2.62952,0.924849,,
2.63086,0.925048,,
2.63219,0.924817,,
2.6335300000000004,0.92458,,
2.63487,0.924563,,
2.63621,0.924448,,
2.63755,0.924252,,
2.63889,0.924159,,
2.64023,0.924153,,
2.64158,0.924146,,
2.64293,0.924121,,
2.64427,0.924026,,
2.64562,0.923944,,
2.6469699999999996,0.923776,,
2.64832,0.923594,,
2.64968,0.923405,,
2.65103,0.923249,,
2.65239,0.923148,,
2.65375,0.922922,,
2.6551,0.922531,,
2.65646,0.92213,,
2.65783,0.921632,,
2.65919,0.921145,,
2.66055,0.920562,,
2.6619200000000003,0.9199,,
2.66329,0.919165,,
2.66466,0.918694,,
2.66603,0.91816,,
2.6674,0.917301,,
2.66877,0.915962,,
2.67014,0.914687,,
2.67152,0.912895,,
2.6729000000000003,0.910447,,
2.67427,0.908642,,
2.67565,0.907577,,
2.67704,0.906885,,
2.67842,0.906197,,
2.6798,0.905681,,
2.68119,0.90498,,
2.6825799999999997,0.904348,,
2.68396,0.903786,,
2.68535,0.903143,,
2.68675,0.902479,,
2.6881399999999998,0.901844,,
2.6895300000000004,0.901407,,
2.69093,0.901107,,
2.69233,0.900857,,
2.69372,0.900777,,
2.6951199999999997,0.900477,,
2.69653,0.90008,,
2.69793,0.89977,,
2.69933,0.89942,,
2.7007399999999997,0.899181,,
2.70215,0.899011,,
2.70356,0.89865,,
2.70497,0.898258,,
2.7063800000000002,0.89787,,
2.70779,0.897531,,
2.70921,0.897294,,
2.71062,0.897115,,
2.71204,0.896669,,
2.71346,0.895933,,
2.71488,0.895362,,
2.7163000000000004,0.894881,,
2.71772,0.894523,,
2.71915,0.894314,,
2.72058,0.894094,,
2.722,0.893343,,
2.72343,0.89269,,
2.72486,0.892204,,
2.7263,0.89146,,
2.72773,0.890675,,
2.72917,0.889951,,
2.7306,0.88928,,
2.73204,0.88865,,
2.73348,0.888036,,
2.73493,0.887449,,
2.73637,0.886586,,
2.73781,0.885691,,
2.7392600000000003,0.885046,,
2.74071,0.884382,,
2.7421599999999997,0.883366,,
2.7436100000000003,0.882113,,
2.74506,0.880951,,
2.7465100000000002,0.879985,,
2.7479699999999996,0.87907,,
2.74943,0.878192,,
2.75089,0.877278,,
2.7523400000000002,0.876374,,
2.75381,0.875564,,
2.75527,0.874761,,
2.75673,0.873704,,
2.7582,0.872512,,
2.7596700000000003,0.871449,,
2.7611399999999997,0.870472,,
2.76261,0.8697,,
2.76408,0.868841,,
2.76556,0.867841,,
2.76703,0.866909,,
2.76851,0.865975,,
2.76999,0.865018,,
2.77147,0.864099,,
2.77295,0.86313,,
2.7744299999999997,0.862199,,
2.77592,0.861356,,
2.7774099999999997,0.860627,,
2.77889,0.85982,,
2.78038,0.859031,,
2.78188,0.858338,,
2.7833699999999997,0.857564,,
2.78486,0.856775,,
2.78636,0.856177,,
2.7878600000000002,0.855515,,
2.7893600000000003,0.854689,,
2.7908600000000003,0.85395,,
2.79236,0.853313,,
2.79387,0.852591,,
2.7953699999999997,0.851881,,
2.7968800000000003,0.851277,,
2.79839,0.850712,,
2.7999,0.85005,,
2.8014099999999997,0.849442,,
2.80293,0.848916,,
2.80444,0.848308,,
2.8059600000000002,0.847667,,
2.80748,0.847102,,
2.809,0.846604,,
2.81052,0.846006,,
2.81205,0.845409,,
2.8135700000000003,0.844891,,
2.8150999999999997,0.844346,,
2.81663,0.843755,,
2.8181599999999998,0.84316,,
2.81969,0.842597,,
2.82123,0.842014,,
2.82276,0.841467,,
2.8243,0.840956,,
2.8258400000000004,0.840509,,
2.8273800000000002,0.840015,,
2.82892,0.839508,,
2.8304699999999996,0.839002,,
2.8320100000000004,0.838499,,
2.83356,0.838143,,
2.8351100000000002,0.83765,,
2.8366599999999997,0.83716,,
2.83821,0.836703,,
2.83977,0.836166,,
2.84132,0.835734,,
2.84288,0.835266,,
2.84444,0.8348,,
2.846,0.834399,,
2.84757,0.833869,,
2.84913,0.83345,,
2.8507,0.833107,,
2.8522600000000002,0.832653,,
2.85383,0.832182,,
2.8554,0.831818,,
2.85698,0.831434,,
2.85855,0.831052,,
2.8601300000000003,0.830625,,
2.86171,0.830174,,
2.86329,0.829754,,
2.86487,0.829314,,
2.86645,0.828917,,
2.86804,0.828559,,
2.86963,0.82813,,
2.8712199999999997,0.827761,,
2.87281,0.827451,,
2.8744,0.827065,,
2.87599,0.826681,,
2.87759,0.826368,,
2.87919,0.825976,,
2.88079,0.825536,,
2.88239,0.825236,,
2.88399,0.82491,,
2.8855999999999997,0.824563,,
2.8872,0.824213,,
2.88881,0.823879,,
2.89042,0.823545,,
2.89203,0.823237,,
2.89365,0.822948,,
2.8952600000000004,0.822607,,
2.89688,0.822352,,
2.8985,0.822145,,
2.90012,0.821928,,
2.9017399999999998,0.821643,,
2.90337,0.821218,,
2.9049899999999997,0.820868,,
2.9066199999999998,0.82072,,
2.90825,0.820545,,
2.9098800000000002,0.820271,,
2.91152,0.819989,,
2.91315,0.819758,,
2.91479,0.819616,,
2.9164299999999996,0.819497,,
2.91807,0.819324,,
2.91972,0.819079,,
2.92136,0.818915,,
2.92301,0.818708,,
2.92466,0.818481,,
2.92631,0.818328,,
2.92796,0.818136,,
2.9296100000000003,0.817907,,
2.93127,0.817687,,
2.93293,0.817496,,
2.93459,0.81736,,
2.93625,0.81722,,
2.93791,0.817133,,
2.93958,0.817041,,
2.9412399999999996,0.816959,,
2.94291,0.816933,,
2.9445900000000003,0.816851,,
2.94626,0.816723,,
2.94793,0.816626,,
2.9496100000000003,0.816547,,
2.9512899999999997,0.816447,,
2.9529699999999997,0.816372,,
2.95465,0.816346,,
2.95634,0.816277,,
2.95802,0.816266,,
2.95971,0.816221,,
2.9614000000000003,0.816165,,
2.9630900000000002,0.816167,,
2.96479,0.816171,,
2.9664800000000002,0.816152,,
2.96818,0.816165,,
2.9698800000000003,0.816178,,
2.97158,0.816137,,
2.97329,0.816124,,
2.9749899999999996,0.816176,,
2.9766999999999997,0.816173,,
2.97841,0.816135,,
2.98012,0.816197,,
2.98184,0.81632,,
2.98355,0.816344,,
2.98527,0.816372,,
2.9869899999999996,0.816435,,
2.98871,0.816441,,
2.99043,0.816435,,
2.9921599999999997,0.81646,,
2.99389,0.816518,,
2.9956199999999997,0.816547,,
2.99735,0.816611,,
2.9990799999999997,0.816773,,
3.00082,0.816872,,
3.0025500000000003,0.816944,,
3.00429,0.817017,,
3.00604,0.817073,,
3.0077800000000003,0.817165,,
3.0095300000000003,0.817248,,
3.01127,0.817304,,
3.01302,0.817386,,
3.01477,0.817524,,
3.0165300000000004,0.817634,,
3.0182800000000003,0.81772,,
3.02004,0.817741,,
3.0218000000000003,0.817765,,
3.02356,0.81777,,
3.02533,0.817903,,
3.0270900000000003,0.81797,,
3.0288600000000003,0.817974,,
