Wavelength (µm) raw,SynOl_Fo50 raw,Wavelength (µm) bin avg,SynOl_Fo50 bin avg,Wavelength (µm) cubic spline of bin avg,SynOl_Fo50 cubic spline of bin avg
0.3,0.06,0.44602,0.42491999999999996,0.44602,0.42491999999999996
0.305,0.06064,0.456,0.425455,0.45600098039215686,0.42545594865092745
0.31,0.05967,0.46598,0.44201,0.46598196078431375,0.4420143899010652
0.315,0.06236,0.47596,0.46519,0.47596294117647064,0.46519594591667973
0.32,0.06763,0.48595,0.47779499999999997,0.4859439215686275,0.4777923957083141
0.325,0.07154,0.49593,0.48324999999999996,0.4959249019607843,0.4832413860900656
0.33,0.07781,0.50591,0.51056,0.5059058823529412,0.5105490521644973
0.335,0.0854,0.51589,0.527485,0.5158868627450981,0.5274819461039124
0.34,0.09618,0.52587,0.53607,0.525867843137255,0.536067591157963
0.345,0.10901,0.53585,0.5513049999999999,0.5358488235294118,0.5513029774149084
0.35,0.12656,0.54583,0.56622,0.5458298039215687,0.5662197903140139
0.355,0.14759,0.55581,0.572945,0.5558107843137255,0.5729453986475734
0.36,0.17141,0.56579,0.57741,0.5657917647058823,0.5774104609478289
0.365,0.199,0.57577,0.578255,0.5757727450980392,0.5782551177978154
0.37,0.22733,0.58576,0.57934,0.5857537254901961,0.5793390780924143
0.375,0.25567,0.59574,0.58002,0.595734705882353,0.5800205307221608
0.38,0.28224,0.60572,0.577895,0.6057156862745099,0.5778957757975678
0.385,0.30699,0.6157,0.5772649999999999,0.6156966666666667,0.5772650290081148
0.39,0.3306,0.62568,0.578075,0.6256776470588236,0.5780743679345663
0.395,0.34941,0.63566,0.58316,0.6356586274509805,0.5831590310517245
0.4,0.35307,0.64564,0.5904050000000001,0.6456396078431372,0.5904047592738836
0.405,0.36675,0.65562,0.5947,0.6556205882352941,0.5947001809395697
0.41,0.39155,0.6656,0.596585,0.665601568627451,0.5965850210717647
0.415,0.40388,0.67558,0.5946750000000001,0.6755825490196079,0.5946740593269496
0.42,0.41123,0.68556,0.590115,0.6855635294117648,0.5901132975283827
0.425,0.41622,0.69555,0.5845899999999999,0.6955445098039216,0.5845940147912618
0.43,0.42026,0.70553,0.575825,0.7055254901960785,0.5758289966030861
0.435,0.42529,0.71551,0.567105,0.7155064705882352,0.5671084585883629
0.44,0.43012,0.72549,0.556,0.7254874509803921,0.5560029396220516
0.445,0.42862,0.73547,0.544625,0.735468431372549,0.5446268268229839
0.45,0.42122,0.74545,0.532635,0.7454494117647059,0.532635712874475
0.455,0.42134,0.75543,0.5201899999999999,0.7554303921568628,0.5201894772378456
0.46,0.42957,0.76541,0.50617,0.7654113725490197,0.5061680628328504
0.465,0.43931,0.77539,0.49219,0.7753923529411766,0.49218661570607164
0.47,0.44471,0.78537,0.4778,0.7853733333333334,0.4777954552971583
0.475,0.45806,0.79536,0.46457000000000004,0.7953543137254901,0.46457799778299846
0.48,0.47232,0.80534,0.449775,0.805335294117647,0.4497817327131557
0.485,0.47687,0.81532,0.43665,0.8153162745098039,0.4366547078669936
0.49,0.47872,0.8253,0.424125,0.8252972549019608,0.42412836284604083
0.495,0.47796,0.83528,0.412725,0.8352782352941177,0.4127268143356582
0.5,0.48854,0.84526,0.40293,0.8452592156862746,0.4029308108366815
0.505,0.50448,0.85524,0.39239500000000005,0.8552401960784315,0.3923948141558164
0.51,0.51664,0.86522,0.38437,0.8652211764705883,0.384369112829648
0.515,0.52515,0.8752,0.37678999999999996,0.875202156862745,0.37678843261258443
0.52,0.52982,0.88518,0.37,0.8851831372549019,0.3699979334966146
0.525,0.53368,0.89517,0.36414,0.8951641176470588,0.36414258510951625
0.53,0.53846,0.90515,0.360405,0.9051450980392157,0.36040728486542745
0.535,0.54706,0.91513,0.35441999999999996,0.9151260784313726,0.354422421980402
0.54,0.55555,0.92511,0.34848999999999997,0.9251070588235295,0.34849189742671594
0.545,0.56321,0.93509,0.3416,0.9350880392156864,0.3416012853241992
0.55,0.56923,0.94507,0.33493,0.9450690196078432,0.33493079313030394
0.555,0.57107,0.95505,0.32577999999999996,0.95505,0.32577999999999996
0.56,0.57482,0.96503,0.318215,0.9650309803921568,0.31821425512149765
0.565,0.57653,0.97501,0.3104,0.9750119607843137,0.3103985878140925
0.57,0.57829,0.98499,0.30437,0.9849929411764706,0.3043684674493188
0.575,0.57795,0.99497,0.29878499999999997,0.9949739215686275,0.2987823058993122
0.58,0.57856,1.00496,0.29081500000000005,1.0049549019607844,0.2908190955625657
0.585,0.57931,1.01494,0.28376,1.0149358823529413,0.28376252792007944
0.59,0.57937,1.02492,0.278315,1.0249168627450982,0.27831656444810987
0.595,0.58013,1.0349,0.27357,1.0348978431372549,0.27357098051974993
0.6,0.57991,1.04488,0.26941499999999996,1.0448788235294117,0.26941542152661135
0.605,0.5778,1.05486,0.26674,1.0548598039215686,0.26674003242236743
0.61,0.57799,1.06484,0.26578999999999997,1.0648407843137255,0.2657899451096361
0.615,0.57765,1.07482,0.26544999999999996,1.0748217647058824,0.2654501015357862
0.62,0.57688,1.0848,0.26712,1.0848027450980393,0.26712065813517566
0.625,0.57691,1.09478,0.26990000000000003,1.0947837254901962,0.2699011967143167
0.63,0.57924,1.10477,0.273685,1.104764705882353,0.27368263005881827
0.635,0.58147,1.11475,0.27849,1.1147456862745098,0.2784879762888448
0.64,0.58485,1.12473,0.283385,1.1247266666666667,0.28338302785943875
0.645,0.58857,1.13471,0.28995499999999996,1.1347076470588235,0.2899535634994797
0.65,0.59224,1.14469,0.295105,1.1446886274509804,0.2951043282197063
0.655,0.59403,1.15467,0.300295,1.1546696078431373,0.3002947882512959
0.66,0.59537,1.16465,0.30566,1.1646505882352942,0.3056603079766722
0.665,0.59662,1.17463,0.31052,1.174631568627451,0.3105206893037305
0.67,0.59655,1.18461,0.31438999999999995,1.184612549019608,0.3143908740987187
0.675,0.59508,1.19459,0.317665,1.1945935294117647,0.3176661882295801
0.68,0.59427,1.20458,0.321395,1.2045745098039216,0.321392721617927
0.685,0.59174,1.21456,0.325285,1.2145554901960784,0.3252836792525275
0.69,0.58849,1.22454,0.327445,1.2245364705882353,0.32744417961751
0.695,0.58623,1.23452,0.33033,1.2345174509803922,0.330329250996705
0.7,0.58295,1.2445,0.332885,1.2444984313725491,0.3328846431645345
0.705,0.5782,1.25448,0.335235,1.254479411764706,0.33523484076520377
0.71,0.57345,1.26446,0.33824,1.264460392156863,0.33824011742242605
0.715,0.56987,1.27444,0.34096499999999996,1.2744413725490196,0.34096534866368977
0.72,0.56434,1.28442,0.34375500000000003,1.2844223529411765,0.34375580540858985
0.725,0.5588,1.2944,0.34767000000000003,1.2944033333333334,0.3476713079534585
0.73,0.5532,1.30438,0.35158,1.3043843137254902,0.3515818995960274
0.735,0.54759,1.31437,0.35639,1.3143652941176471,0.35638780680556686
0.74,0.54166,1.32435,0.361025,1.324346274509804,0.36102301353617144
0.745,0.53537,1.33433,0.367005,1.334327254901961,0.36700337533749683
0.75,0.5299,1.34431,0.3728,1.3443082352941178,0.3727988723189581
0.755,0.52328,1.35429,0.379785,1.3542892156862745,0.3797844559196253
0.76,0.5171,1.36427,0.38634999999999997,1.3642701960784314,0.38635012927809814
0.765,0.50977,1.37425,0.3933,1.3742511764705883,0.39330086077920734
0.77,0.50257,1.38423,0.40115999999999996,1.3842321568627451,0.40116186778821133
0.775,0.49597,1.39421,0.41056499999999996,1.394213137254902,0.4105681197461566
0.78,0.48841,1.40419,0.420505,1.404194117647059,0.4205090003561216
0.785,0.48132,1.41418,0.429945,1.4141750980392158,0.4299403808971991
0.79,0.47428,1.42416,0.43920000000000003,1.4241560784313727,0.43919656396443557
0.795,0.46725,1.43414,0.44791000000000003,1.4341370588235294,0.4479071961005771
0.8,0.46189,1.44412,0.458365,1.4441180392156863,0.45836289925647417
0.805,0.45313,1.4541,0.468995,1.4540990196078432,0.46899392224061554
0.81,0.44642,1.46408,0.48013,1.46408,0.48013
0.815,0.43992,1.47406,0.490575,1.474060980392157,0.49057607054267005
0.82,0.43338,1.48404,0.50197,1.4840419607843138,0.501972202780422
0.825,0.42739,1.49402,0.512895,1.4940229411764707,0.5128983051836346
0.83,0.42086,1.504,0.524485,1.5040039215686276,0.5244895083518976
0.835,0.41546,1.51399,0.535765,1.5139849019607845,0.5357591421793905
0.84,0.40999,1.52397,0.547335,1.5239658823529412,0.5473303901797976
0.845,0.40561,1.53395,0.5582,1.533946862745098,0.5581964958966085
0.85,0.40025,1.54393,0.56969,1.543927843137255,0.5696875570875815
0.855,0.39417,1.55391,0.58041,1.5539088235294118,0.5804087894518493
0.86,0.39062,1.56389,0.5905400000000001,1.5638898039215687,0.5905398001806977
0.865,0.38619,1.57387,0.601025,1.5738707843137256,0.6010258561726187
0.87,0.38255,1.58385,0.611855,1.5838517647058825,0.611856803088227
0.875,0.37848,1.59383,0.6214299999999999,1.5938327450980394,0.6214326217911745
0.88,0.3751,1.60381,0.63115,1.6038137254901963,0.631153569186334
0.885,0.37167,1.6138,0.6404099999999999,1.613794705882353,0.6404051540291836
0.89,0.36833,1.62378,0.6494500000000001,1.6237756862745099,0.649446209261209
0.895,0.3657,1.63376,0.65774,1.6337566666666667,0.6577374029621836
0.9,0.36258,1.64374,0.66534,1.6437376470588236,0.6653381613533039
0.905,0.36201,1.65372,0.673305,1.6537186274509805,0.6733039376193801
0.91,0.3588,1.6637,0.68089,1.6636996078431374,0.6808896875051487
0.915,0.35588,1.67368,0.688715,1.6736805882352943,0.6887153945761256
0.92,0.35296,1.68366,0.694455,1.683661568627451,0.6944559374808452
0.925,0.3498,1.69364,0.7001900000000001,1.6936425490196079,0.7001909890950644
0.93,0.34718,1.70362,0.703255,1.7036235294117648,0.7032567483092099
0.935,0.3434,1.7136,0.71058,1.7136045098039216,0.7105834015986014
0.94,0.3398,1.72359,0.7167300000000001,1.7235854901960785,0.7167275812231196
0.945,0.33672,1.73357,0.721635,1.7335664705882354,0.7216335118644334
0.95,0.33314,1.74355,0.725425,1.7435474509803923,0.725424003427322
0.955,0.3272,1.75353,0.73005,1.7535284313725492,0.7300491466319319
0.96,0.32436,1.76351,0.7356199999999999,1.763509411764706,0.7356197073451146
0.965,0.32032,1.77349,0.73932,1.7734903921568628,0.7393200990240852
0.97,0.31611,1.78347,0.741455,1.7834713725490197,0.7414553382702302
0.975,0.31277,1.79345,0.744525,1.7934523529411766,0.7445257678796234
0.98,0.30803,1.80343,0.7475,1.8034333333333334,0.7475008842143371
0.985,0.30437,1.81341,0.749995,1.8134143137254903,0.7499961079351575
0.99,0.30058,1.8234,0.752535,1.8233952941176472,0.7525339638595586
0.995,0.29699,1.83338,0.753935,1.8333762745098041,0.7539348280444566
1.0,0.29286,1.84336,0.754165,1.8433572549019608,0.7541647657706744
1.005,0.28877,1.85334,0.755705,1.8533382352941177,0.7557047450075726
1.01,0.28518,1.86332,0.7566440000000001,1.8633192156862746,0.7566439357638151
1.015,0.28234,1.8733,0.757528,1.8733001960784315,0.7575280148828618
1.02,0.27954,1.88328,0.7581357142857144,1.8832811764705883,0.7581357882825029
1.025,0.27709,1.89326,0.758874,1.8932621568627452,0.758874166347703
1.03,0.27455,1.90324,0.7595907142857141,1.9032431372549021,0.7595909212636227
1.035,0.27259,1.91322,0.7602178571428572,1.913224117647059,0.7602181162899806
1.04,0.27018,1.92321,0.7609314285714286,1.923205098039216,0.7609310115155224
1.045,0.26865,1.93319,0.7618042857142856,1.9331860784313726,0.7618039978337952
1.05,0.26705,1.94317,0.7624235714285713,1.9431670588235295,0.7624233659780495
1.055,0.26643,1.95315,0.7632515384615386,1.9531480392156864,0.7632513772718174
1.06,0.26591,1.96313,0.7639914285714287,1.9631290196078433,0.7639913573728196
1.065,0.26567,1.97311,0.7647423076923078,1.9731100000000001,0.7647423076923078
1.07,0.26532,1.98309,0.7654799999999999,1.983090980392157,0.7654800716862211
1.075,0.26558,1.99307,0.7662199999999999,1.993071960784314,0.7662201495805395
1.08,0.26652,2.00305,0.7670199999999999,2.0030529411764704,0.7670202490166486
1.085,0.26772,2.01303,0.7678730769230768,2.0130339215686273,0.767873398381143
1.09,0.26898,2.02301,0.7686338461538462,2.023014901960784,0.7686342018383734
1.095,0.27082,2.033,0.7693566666666668,2.032995882352941,0.7693563638741832
1.1,0.27243,2.04298,0.7701007692307692,2.042976862745098,0.7701005369527049
1.105,0.27494,2.05296,0.7708541666666666,2.052957843137255,0.770853993125157
1.11,0.27705,2.06294,0.7716941666666668,2.0629388235294117,0.771694068911448
1.115,0.27993,2.07292,0.7724850000000001,2.0729198039215686,0.7724849848228456
1.12,0.2823,2.0829,0.7732908333333333,2.0829007843137255,0.7732909017689967
1.125,0.28447,2.09288,0.7741908333333334,2.0928817647058824,0.7741909857180658
1.13,0.28794,2.10286,0.7750190909090908,2.1028627450980393,0.7750193293257024
1.135,0.29197,2.11284,0.7759416666666666,2.112843725490196,0.7759420114701088
1.14,0.29325,2.12282,0.7767841666666667,2.122824705882353,0.776784512599382
1.145,0.29696,2.13281,0.7774854545454545,2.13280568627451,0.7774851213681022
1.15,0.29914,2.14279,0.7783209090909092,2.142786666666667,0.778320644875294
1.155,0.30145,2.15277,0.7789545454545455,2.1527676470588237,0.7789544340848695
1.16,0.30422,2.16275,0.779400909090909,2.16274862745098,0.7794008321273744
1.165,0.3071,2.17273,0.7800754545454545,2.172729607843137,0.7800754289331431
1.17,0.30931,2.18271,0.7806436363636364,2.182710588235294,0.7806436694493794
1.175,0.31173,2.19269,0.7812818181818183,2.192691568627451,0.7812819316620154
1.18,0.31314,2.20267,0.7820027272727273,2.2026725490196077,0.782002887671056
1.185,0.31564,2.21265,0.7825069999999998,2.2126535294117646,0.7825071560987021
1.19,0.31666,2.22263,0.78296,2.2226345098039215,0.782960216095018
1.195,0.31867,2.23262,0.783453,2.2326154901960784,0.783452782040418
1.2,0.32041,2.2426,0.7839029999999998,2.2425964705882353,0.7839028514586157
1.205,0.32238,2.25258,0.7842963636363636,2.252577450980392,0.7842962697172977
1.21,0.32536,2.26256,0.784635,2.262558431372549,0.7846349520364426
1.215,0.32521,2.27254,0.7849499999999999,2.272539411764706,0.7849499780388057
1.22,0.32675,2.28252,0.785355,2.282520392156863,0.7853550143206426
1.225,0.32814,2.2925,0.785616,2.2925013725490198,0.7856160230481981
1.23,0.32969,2.30248,0.7857733333333333,2.3024823529411766,0.7857733852462742
1.235,0.33097,2.31246,0.7861560000000001,2.3124633333333335,0.786156190997678
1.24,0.33218,2.32244,0.7867629999999999,2.32244431372549,0.7867631995216654
1.245,0.33359,2.33242,0.7870022222222224,2.332425294117647,0.7870022858313324
1.25,0.33458,2.34241,0.7871249999999999,2.3424062745098038,0.7871249461655254
1.255,0.33589,2.35239,0.7873466666666666,2.3523872549019607,0.7873465742112892
1.26,0.33741,2.36237,0.7877266666666668,2.3623682352941175,0.7877266107686431
1.265,0.33907,2.37235,0.7879388888888889,2.3723492156862744,0.7879388750472507
1.27,0.34048,2.38233,0.788151111111111,2.3823301960784313,0.7881511160763541
1.275,0.34145,2.39231,0.788403,2.392311176470588,0.788403024202733
1.28,0.34288,2.40229,0.7885512499999999,2.402292156862745,0.7885512773192902
1.285,0.34463,2.41227,0.7886722222222222,2.412273137254902,0.7886722526223712
1.29,0.3468,2.42225,0.7887422222222222,2.422254117647059,0.7887422468259243
1.295,0.34854,2.43223,0.7888333333333333,2.432235098039216,0.7888334090048567
1.3,0.35037,2.44222,0.7889577777777776,2.4422160784313727,0.7889577800180555
1.305,0.35279,2.4522,0.7888037499999999,2.452197058823529,0.7888038131515525
1.31,0.35528,2.46218,0.7886533333333332,2.462178039215686,0.788653343246347
1.315,0.3575,2.47216,0.78868375,2.472159019607843,0.7886837444993258
1.32,0.35983,2.48214,0.7886977777777777,2.48214,0.7886977777777777
1.325,0.36222,2.49212,0.7886549999999999,2.4921209803921567,0.7886550018263105
1.33,0.36553,2.5021,0.7886762499999999,2.5021019607843136,0.7886762306002065
1.335,0.36848,2.51208,0.7884775,2.5120829411764705,0.7884774539518346
1.34,0.37132,2.52206,0.78841,2.5220639215686274,0.7884099705777411
1.345,0.37428,2.53204,0.7882775000000001,2.5320449019607842,0.788277429106259
1.35,0.37831,2.54203,0.78811625,2.542025882352941,0.788116344281909
1.355,0.38126,2.55201,0.7878862500000001,2.552006862745098,0.7878862861072947
1.36,0.38472,2.56199,0.7878542857142856,2.561987843137255,0.7878543069218766
1.365,0.38798,2.57197,0.78765375,2.571968823529412,0.7876537724003004
1.37,0.39182,2.58195,0.78749875,2.5819498039215687,0.7874987540944552
1.375,0.39478,2.59193,0.7872212499999999,2.5919307843137256,0.7872212284763794
1.38,0.3989,2.60191,0.7869485714285712,2.601911764705882,0.7869485101366107
1.385,0.40342,2.61189,0.7865500000000001,2.611892745098039,0.7865499027863604
1.39,0.40846,2.62187,0.7862471428571428,2.621873725490196,0.7862470144919298
1.395,0.41267,2.63185,0.7858225,2.6318547058823527,0.7858222860471793
1.4,0.41795,2.64183,0.7853300000000001,2.6418356862745096,0.7853296623016669
1.405,0.42306,2.65182,0.784655,2.6518166666666665,0.784655225842344
1.41,0.42776,2.6618,0.78395,2.6617976470588234,0.7839501981964762
1.415,0.43213,2.67178,0.78273,2.6717786274509803,0.7827302387429581
1.42,0.43727,2.68176,0.7806785714285714,2.681759607843137,0.7806786511761685
1.425,0.44113,2.69174,0.77851125,2.691740588235294,0.778511084824774
1.43,0.44582,2.70172,0.7748385714285716,2.701721568627451,0.7748378984925134
1.435,0.45,2.7117,0.770137142857143,2.711702549019608,0.7701358160290105
1.44,0.45533,2.72168,0.7643471428571429,2.7216835294117647,0.7643448744111503
1.445,0.4614,2.73166,0.7574957142857144,2.7316645098039216,0.7574925181624393
1.45,0.46656,2.74164,0.7503557142857142,2.7416454901960785,0.7503517156323417
1.455,0.47143,2.75163,0.74282,2.7516264705882354,0.7428227785952174
1.46,0.47736,2.76161,0.7345071428571428,2.7616074509803923,0.734509397237591
1.465,0.4829,2.77159,0.7252728571428572,2.7715884313725487,0.7252743468786366
1.47,0.48813,2.78157,0.7160428571428571,2.7815694117647056,0.7160433672223486
1.475,0.49302,2.79155,0.7081383333333333,2.7915503921568625,0.7081380461059913
1.48,0.49919,2.80153,0.7011942857142858,2.8015313725490194,0.7011933707184492
1.485,0.50475,2.81151,0.6948233333333333,2.8115123529411763,0.6948219133508436
1.49,0.50983,2.82149,0.6892800000000001,2.821493333333333,0.6892783307466225
1.495,0.51596,2.83147,0.6847466666666667,2.83147431372549,0.684744844710824
1.5,0.52182,2.84145,0.680702857142857,2.841455294117647,0.6807008029500121
1.505,0.52715,2.85144,0.6771050000000001,2.851436274509804,0.677106198058038
1.51,0.53302,2.86142,0.6742349999999999,2.8614172549019607,0.6742357379615923
1.515,0.53851,2.8714,0.6716357142857142,2.8713982352941176,0.6716361505207287
1.52,0.54427,2.88138,0.6694483333333334,2.8813792156862745,0.6694484755035817
1.525,0.5504,2.89136,0.667965,2.8913601960784314,0.6679649742801551
1.53,0.55525,2.90134,0.6665983333333333,2.9013411764705883,0.6665981559595905
1.535,0.56115,2.91132,0.6651066666666666,2.911322156862745,0.665106397109564
1.54,0.56685,2.9213,0.6641142857142857,2.9213031372549016,0.6641139845335136
1.545,0.57253,2.93128,0.6630839999999999,2.9312841176470585,0.6630835921849443
1.55,0.57777,2.94126,0.6622316666666667,2.9412650980392154,0.6622312907978023
1.555,0.58305,2.95125,0.6616316666666667,2.9512460784313723,0.6616318330637071
1.56,0.5878,2.96123,0.6612616666666667,2.961227058823529,0.6612618076927517
1.565,0.59328,2.97121,0.66077,2.971208039215686,0.6607700485837635
1.57,0.59838,2.98119,0.6608516666666667,2.981189019607843,0.660851643351092
1.575,0.60367,2.99117,0.6608983333333334,2.99117,0.6608983333333335
1.58,0.6094,,,,
1.585,0.61431,,,,
1.59,0.61884,,,,
1.595,0.62402,,,,
1.6,0.62866,,,,
1.605,0.63364,,,,
1.61,0.63835,,,,
1.615,0.64247,,,,
1.62,0.64698,,,,
1.625,0.65192,,,,
1.63,0.65561,,,,
1.635,0.65987,,,,
1.64,0.66366,,,,
1.645,0.66702,,,,
1.65,0.6717,,,,
1.655,0.67491,,,,
1.66,0.6789,,,,
1.665,0.68288,,,,
1.67,0.68703,,,,
1.675,0.6904,,,,
1.68,0.6934,,,,
1.685,0.69551,,,,
1.69,0.69898,,,,
1.695,0.7014,,,,
1.7,0.70153,,,,
1.705,0.70498,,,,
1.71,0.70886,,,,
1.715,0.7123,,,,
1.72,0.71518,,,,
1.725,0.71828,,,,
1.73,0.72044,,,,
1.735,0.72283,,,,
1.74,0.72451,,,,
1.745,0.72634,,,,
1.75,0.728,,,,
1.755,0.7321,,,,
1.76,0.73429,,,,
1.765,0.73695,,,,
1.77,0.73817,,,,
1.775,0.74047,,,,
1.78,0.74071,,,,
1.785,0.7422,,,,
1.79,0.7439,,,,
1.795,0.74515,,,,
1.8,0.7468,,,,
1.805,0.7482,,,,
1.81,0.7498,,,,
1.815,0.75019,,,,
1.82,0.75156,,,,
1.825,0.75351,,,,
1.83,0.75393,,,,
1.835,0.75394,,,,
1.84,0.75408,,,,
1.845,0.75425,,,,
1.85,0.7554,,,,
1.8512,0.75534,,,,
1.8519,0.75547,,,,
1.8526,0.75553,,,,
1.8532,0.7555,,,,
1.8539,0.75567,,,,
1.8545,0.75572,,,,
1.8552,0.75575,,,,
1.8559,0.75592,,,,
1.8565,0.75604,,,,
1.8572,0.75605,,,,
1.8579,0.75607,,,,
1.8585,0.75616,,,,
1.8592,0.75615,,,,
1.8599,0.75612,,,,
1.8605,0.75622,,,,
1.8612,0.7564,,,,
