Wavelength (µm),ALH-271 spot f,Wavelength (µm) target,ALH-271 spot f target
0.3,0.057685,0.44602,0.15241
0.305,0.060534,0.456,0.155415
0.31,0.062072,0.46598,0.15853499999999998
0.315,0.064111,0.47596,0.16142
0.32,0.06848,0.48595,0.16443000000000002
0.325,0.071183,0.49593,0.167925
0.33,0.074777,0.50591,0.169385
0.335,0.078965,0.51589,0.17598999999999998
0.34,0.082435,0.52587,0.17989
0.345,0.086173,0.53585,0.181745
0.35,0.090999,0.54583,0.182115
0.355,0.094995,0.55581,0.184595
0.36,0.099534,0.56579,0.187135
0.365,0.10473,0.57577,0.18843500000000002
0.37,0.10834,0.58576,0.18976500000000002
0.375,0.11285,0.59574,0.190345
0.38,0.11743,0.60572,0.19095499999999999
0.385,0.1209,0.6157,0.19178499999999998
0.39,0.12473,0.62568,0.191965
0.395,0.12808,0.63566,0.19227
0.4,0.13209,0.64564,0.19221
0.405,0.1359,0.65562,0.19174
0.41,0.13773,0.6656,0.19135999999999997
0.415,0.14179,0.67558,0.19161499999999998
0.42,0.14447,0.68556,0.19097
0.425,0.14588,0.69555,0.189865
0.43,0.14743,0.70553,0.18925
0.435,0.1492,0.71551,0.18825
0.44,0.15044,0.72549,0.18642999999999998
0.445,0.15162,0.73547,0.18351
0.45,0.1532,0.74545,0.1805
0.455,0.15445,0.75543,0.17496
0.46,0.15638,0.76541,0.168015
0.465,0.15772,0.77539,0.160935
0.47,0.15935,0.78537,0.15266000000000002
0.475,0.1607,0.79536,0.143365
0.48,0.16214,0.80534,0.13374999999999998
0.485,0.16366,0.81532,0.12498999999999999
0.49,0.1652,0.8253,0.116525
0.495,0.1672,0.83528,0.10899
0.5,0.16865,0.84526,0.10228999999999999
0.505,0.16756,0.85524,0.0965045
0.51,0.17121,0.86522,0.0918205
0.515,0.17481,0.8752,0.08738950000000001
0.52,0.17717,0.88518,0.08383550000000001
0.525,0.17934,0.89517,0.08077200000000001
0.53,0.18044,0.90515,0.07888
0.535,0.18155,0.91513,0.077665
0.54,0.18194,0.92511,0.076881
0.545,0.18169,0.93509,0.07707449999999999
0.55,0.18254,0.94507,0.077769
0.555,0.18381,0.95505,0.07923050000000001
0.56,0.18538,0.96503,0.0812345
0.565,0.18682,0.97501,0.0840225
0.57,0.18745,0.98499,0.086661
0.575,0.18798,0.99497,0.0895745
0.58,0.18889,1.005,0.0939735
0.585,0.18952,1.0149,0.0988555
0.59,0.19001,1.0249,0.10436
0.595,0.19022,1.0349,0.110025
0.6,0.19047,1.0449,0.11542
0.605,0.19097,1.0549,0.12116
0.61,0.19094,1.0648,0.126
0.615,0.19169,1.0748,0.130345
0.62,0.19188,1.0848,0.13405
0.625,0.1918,1.0948,0.13733
0.63,0.19213,1.1048,0.14004
0.635,0.19201,1.1148,0.142175
0.64,0.19253,1.1247,0.144055
0.645,0.19217,1.1347,0.1452
0.65,0.19225,1.1447,0.14632499999999998
0.655,0.19177,1.1547,0.14735
0.66,0.19171,1.1647,0.147965
0.665,0.19132,1.1746,0.14856000000000003
0.67,0.1914,1.1846,0.14941500000000002
0.675,0.19115,1.1946,0.15012
0.68,0.19208,1.2046,0.15102500000000002
0.685,0.19122,1.2146,0.151935
0.69,0.19072,1.2245,0.15262
0.695,0.18999,1.2345,0.15285500000000002
0.7,0.18974,1.2445,0.1535
0.705,0.1892,1.2545,0.154005
0.71,0.1893,1.2645,0.15439
0.715,0.18837,1.2744,0.15487499999999998
0.72,0.18813,1.2844,0.15540500000000002
0.725,0.18722,1.2944,0.15613
0.73,0.18564,1.3044,0.15671000000000002
0.735,0.18414,1.3144,0.15731
0.74,0.18288,1.3244,0.158055
0.745,0.18143,1.3343,0.15845
0.75,0.17957,1.3443,0.15885500000000002
0.755,0.17739,1.3543,0.158765
0.76,0.17253,1.3643,0.158905
0.765,0.16979,1.3743,0.159285
0.77,0.16624,1.3842,0.15936499999999998
0.775,0.16308,1.3942,0.1591
0.78,0.15879,1.4042,0.158165
0.785,0.15483,1.4142,0.15828
0.79,0.15049,1.4242,0.15772
0.795,0.14595,1.4341,0.15733000000000003
0.8,0.14078,1.4441,0.156215
0.805,0.13604,1.4541,0.15533
0.81,0.13146,1.4641,0.154175
0.815,0.12724,1.4741,0.152845
0.82,0.12274,1.484,0.151395
0.825,0.11866,1.494,0.14997500000000002
0.83,0.11439,1.504,0.14838
0.835,0.11083,1.514,0.14666
0.84,0.10715,1.524,0.144845
0.845,0.10359,1.534,0.14271499999999998
0.85,0.10099,1.5439,0.14083
0.855,0.097655,1.5539,0.138655
0.86,0.095354,1.5639,0.136515
0.865,0.092999,1.5739,0.13383499999999998
0.87,0.090642,1.5839,0.13182
0.875,0.088341,1.5938,0.12944
0.88,0.086438,1.6038,0.12747
0.885,0.084687,1.6138,0.12531
0.89,0.082984,1.6238,0.12329499999999999
0.895,0.081472,1.6338,0.12075
0.9,0.080072,1.6437,0.118925
0.905,0.079474,1.6537,0.1164
0.91,0.078286,1.6637,0.11518
0.915,0.077869,1.6737,0.113115
0.92,0.077461,1.6837,0.11099500000000001
0.925,0.077081,1.6936,0.109315
0.93,0.076681,1.7036,0.10772
0.935,0.076998,1.7136,0.10575000000000001
0.94,0.077151,1.7236,0.10386000000000001
0.945,0.077508,1.7336,0.1021
0.95,0.07803,1.7436,0.10063
0.955,0.078737,1.7535,0.0990455
0.96,0.079724,1.7635,0.0976455
0.965,0.080457,1.7735,0.09627
0.97,0.082012,1.7835,0.094833
0.975,0.083375,1.7935,0.0936375
0.98,0.08467,1.8034,0.0923325
0.985,0.086661,1.8134,0.0912505
0.99,0.088489,1.8234,0.090286
0.995,0.09066,1.8334,0.0892185
1.0,0.092736,1.8434,0.0884405
1.005,0.095211,1.8533,0.0877415
1.01,0.097521,1.8633,0.08710899999999999
1.015,0.10019,1.8733,0.08597250000000001
1.02,0.103,1.8833,0.0860745
1.025,0.10572,1.8933,0.085239
1.03,0.10851,1.9032,0.0845285
1.035,0.11154,1.9132,0.084348
1.04,0.11407,1.9232,0.0840785
1.045,0.11677,1.9332,0.0838395
1.05,0.11998,1.9432,0.08349200000000001
1.055,0.12234,1.9532,0.083087
1.06,0.12485,1.9631,0.0829125
1.065,0.12715,1.9731,0.0831185
1.07,0.12933,1.9831,0.0830635
1.075,0.13136,1.9931,0.083071
1.08,0.13319,2.0031,0.08325199999999999
1.085,0.13491,2.013,0.08359549999999999
1.09,0.13645,2.023,0.083758
1.095,0.13821,2.033,0.084207
1.1,0.13943,2.043,0.084593
1.105,0.14065,2.053,0.08496300000000001
1.11,0.14165,2.0629,0.0855095
1.115,0.1427,2.0729,0.086007
1.12,0.14383,2.0829,0.0865055
1.125,0.14428,2.0929,0.0872735
1.13,0.14502,2.1029,0.0879365
1.135,0.14538,2.1128,0.088814
1.14,0.14615,2.1228,0.08936150000000001
1.145,0.1465,2.1328,0.09024
1.15,0.14699,2.1428,0.09114649999999999
1.155,0.14771,2.1528,0.09216949999999999
1.16,0.1478,2.1628,0.0929955
1.165,0.14813,2.1727,0.094041
1.17,0.14827,2.1827,0.09544150000000001
1.175,0.14885,2.1927,0.096604
1.18,0.14954,2.2027,0.0977435
1.185,0.14929,2.2127,0.09924
1.19,0.14985,2.2226,0.100485
1.195,0.15039,2.2326,0.10174
1.2,0.15071,2.2426,0.10313
1.205,0.15134,2.2526,0.10457
1.21,0.1516,2.2626,0.10591
1.215,0.15227,2.2725,0.1075
1.22,0.15254,2.2825,0.10883000000000001
1.225,0.1527,2.2925,0.110305
1.23,0.1527,2.3025,0.1117
1.235,0.15301,2.3125,0.11333
1.24,0.15347,2.3224,0.11458
1.245,0.15353,2.3324,0.116085
1.25,0.15371,2.3424,0.117575
1.255,0.1543,2.3524,0.11896
1.26,0.15404,2.3624,0.120465
1.265,0.15474,2.3724,0.12265000000000001
1.27,0.15488,2.3823,0.12437000000000001
1.275,0.15487,2.3923,0.125885
1.28,0.15519,2.4023,0.127375
1.285,0.15562,2.4123,0.12897
1.29,0.15592,2.4223,0.13070500000000002
1.295,0.15634,2.4322,0.13200499999999998
1.3,0.15669,2.4422,0.13328
1.305,0.15673,2.4522,0.134375
1.31,0.15713,2.4622,0.13566
1.315,0.15749,2.4722,0.137065
1.32,0.15778,2.4821,0.13818
1.325,0.15833,2.4921,0.139215
1.33,0.1582,2.5021,0.14026833333333333
1.335,0.1587,2.5121,0.14151624999999998
1.34,0.15884,2.5221,0.14179375
1.345,0.15887,2.532,0.14234875000000002
1.35,0.15875,2.542,0.14266500000000001
1.355,0.15878,2.552,0.14251
1.36,0.15857,2.562,0.143465
1.365,0.15924,2.572,0.14389749999999998
1.37,0.15911,2.5819,0.14371375
1.375,0.15946,2.5919,0.14418714285714287
1.38,0.15888,2.6019,0.1455675
1.385,0.15985,2.6119,0.145315
1.39,0.15946,2.6219,0.14538285714285717
1.395,0.15874,2.6319,0.14578624999999998
1.4,0.1583,2.6418,0.14344571428571426
1.405,0.15803,2.6518,0.1433485714285714
1.41,0.15847,2.6618,0.1432075
1.415,0.15809,2.6718,0.14332714285714285
1.42,0.15778,2.6818,0.1398257142857143
1.425,0.15766,2.6917,0.13651
1.43,0.15762,2.7017,0.13393857142857143
1.435,0.15704,2.7117,0.12920142857142858
1.44,0.15648,2.7217,0.12269428571428571
1.445,0.15595,2.7317,0.11893428571428573
1.45,0.15547,2.7416,0.11755142857142856
1.455,0.15519,2.7516,0.11273285714285715
1.46,0.15439,2.7616,0.1109257142857143
1.465,0.15396,2.7716,0.10896
1.47,0.15306,2.7816,0.10656428571428571
1.475,0.15263,2.7916,0.10539285714285716
1.48,0.15184,2.8015,0.103755
1.485,0.15095,2.8115,0.10286714285714285
1.49,0.15049,2.8215,0.10148833333333333
1.495,0.14946,2.8315,0.10082871428571429
1.5,0.14881,2.8414,0.10023616666666668
1.505,0.14795,2.8514,0.10002385714285714
1.51,0.14706,2.8614,0.0999375
1.515,0.14626,2.8714,0.09920933333333333
1.52,0.1453,2.8814,0.09900766666666667
1.525,0.14439,2.8914,0.09896742857142857
1.53,0.14331,2.9013,0.09861033333333334
1.535,0.14212,2.9113,0.09831833333333333
1.54,0.14131,2.9213,0.09814300000000002
1.545,0.14035,2.9313,0.09813833333333333
1.55,0.1391,2.9413,0.09745716666666666
1.555,0.13821,2.9513,0.09719866666666667
1.56,0.13691,2.9612,0.09687733333333333
1.565,0.13612,2.9712,0.09635016666666667
1.57,0.1343,2.9812,0.0963976
1.575,0.13337,2.9912,0.09581133333333332
1.58,0.13246,,
1.585,0.13118,,
1.59,0.1298,,
1.595,0.12908,,
1.6,0.12825,,
1.605,0.12669,,
1.61,0.1258,,
1.615,0.12482,,
1.62,0.12383,,
1.625,0.12276,,
1.63,0.12142,,
1.635,0.12008,,
1.64,0.11931,,
1.645,0.11854,,
1.65,0.11683,,
1.655,0.11597,,
1.66,0.11586,,
1.665,0.1145,,
1.67,0.11368,,
1.675,0.11255,,
1.68,0.1116,,
1.685,0.11039,,
1.69,0.10975,,
1.695,0.10888,,
1.7,0.1083,,
1.705,0.10714,,
1.71,0.10623,,
1.715,0.10527,,
1.72,0.10434,,
1.725,0.10338,,
1.73,0.10248,,
1.735,0.10172,,
1.74,0.10095,,
1.745,0.10031,,
1.75,0.099503,,
1.755,0.098588,,
1.76,0.09795,,
1.765,0.097341,,
1.77,0.096631,,
1.775,0.095909,,
1.78,0.095133,,
1.785,0.094533,,
1.79,0.093971,,
1.795,0.093304,,
1.8,0.092665,,
1.805,0.092,,
1.81,0.091537,,
1.815,0.090964,,
1.82,0.090281,,
1.825,0.090291,,
1.83,0.089567,,
1.835,0.08887,,
1.84,0.088391,,
1.845,0.08849,,
1.85,0.087829,,
1.855,0.087654,,
1.86,0.087205,,
1.865,0.087013,,
1.87,0.085626,,
1.875,0.086319,,
1.88,0.086553,,
1.885,0.085596,,
1.89,0.085352,,
1.895,0.085126,,
1.9,0.084436,,
1.905,0.084621,,
1.91,0.084589,,
1.915,0.084107,,
1.92,0.083971,,
1.925,0.084186,,
1.93,0.083796,,
1.935,0.083883,,
1.94,0.083557,,
1.945,0.083427,,
1.95,0.083164,,
1.955,0.08301,,
1.96,0.082965,,
1.965,0.08286,,
1.97,0.083119,,
1.975,0.083118,,
1.98,0.082994,,
1.985,0.083133,,
1.99,0.083082,,
1.995,0.08306,,
2.0,0.083217,,
2.005,0.083287,,
2.01,0.083549,,
2.015,0.083642,,
2.02,0.083581,,
2.025,0.083935,,
2.03,0.084068,,
2.035,0.084346,,
2.04,0.084463,,
2.045,0.084723,,
2.05,0.084844,,
2.055,0.085082,,
2.06,0.085536,,
2.065,0.085483,,
2.07,0.085841,,
2.075,0.086173,,
2.08,0.086366,,
2.085,0.086645,,
2.09,0.087071,,
2.095,0.087476,,
2.1,0.087852,,
2.105,0.088021,,
2.11,0.088629,,
2.115,0.088999,,
2.12,0.089145,,
2.125,0.089578,,
2.13,0.090169,,
2.135,0.090311,,
2.14,0.091011,,
2.145,0.091282,,
2.15,0.091996,,
2.155,0.092343,,
2.16,0.092843,,
2.165,0.093148,,
2.17,0.093767,,
2.175,0.094315,,
2.18,0.095227,,
2.185,0.095656,,
2.19,0.096448,,
2.195,0.09676,,
2.2,0.097344,,
2.205,0.098143,,
2.21,0.09895,,
2.215,0.09953,,
2.22,0.10018,,
2.225,0.10079,,
2.23,0.10126,,
2.235,0.10222,,
2.24,0.10272,,
2.245,0.10354,,
2.25,0.10411,,
2.255,0.10503,,
2.26,0.10562,,
2.265,0.1062,,
2.27,0.10701,,
2.275,0.10799,,
2.28,0.10857,,
2.285,0.10909,,
2.29,0.10986,,
2.295,0.11075,,
2.3,0.11129,,
2.305,0.11211,,
2.31,0.11298,,
2.315,0.11368,,
2.32,0.11427,,
2.325,0.11489,,
2.33,0.11574,,
2.335,0.11643,,
2.34,0.11716,,
2.345,0.11799,,
2.35,0.11863,,
2.355,0.11929,,
2.36,0.12009,,
2.365,0.12084,,
2.37,0.12231,,
2.375,0.12299,,
2.38,0.124,,
2.385,0.12474,,
2.39,0.12553,,
2.395,0.12624,,
2.4,0.12693,,
2.405,0.12782,,
2.41,0.12861,,
2.415,0.12933,,
2.42,0.13019,,
2.425,0.13122,,
2.43,0.13194,,
2.435,0.13207,,
2.44,0.13311,,
2.445,0.13345,,
2.45,0.13402,,
2.455,0.13473,,
2.46,0.13527,,
2.465,0.13605,,
2.47,0.13642,,
2.475,0.13771,,
2.48,0.13792,,
2.485,0.13844,,
2.49,0.13899,,
2.495,0.13944,,
2.5,0.14018,,
2.502,0.14078,,
2.5031999999999996,0.1404,,
2.5044,0.14041,,
2.5056,0.14015,,
2.5068,0.13969,,
2.508,0.14009,,
2.5093,0.14149,,
2.5105,0.14207,,
2.5117,0.14162,,
2.5129,0.14081,,
2.5141,0.14188,,
2.5153000000000003,0.14209,,
2.5166,0.14208,,
2.5178000000000003,0.14234,,
2.519,0.14246,,
2.5202,0.14153,,
2.5215,0.14128,,
2.5227,0.14202,,
2.5239000000000003,0.14233,,
2.5252,0.1415,,
2.5264,0.14089,,
2.5276,0.14096,,
2.5288000000000004,0.14173,,
2.5301,0.1423,,
2.5313000000000003,0.14273,,
2.5326,0.14348,,
2.5338000000000003,0.14315,,
2.535,0.14246,,
2.5363,0.14198,,
2.5375,0.14279,,
2.5388,0.14352,,
2.54,0.14195,,
2.5412,0.1416,,
2.5425,0.14247,,
2.5437,0.14269,,
2.545,0.14285,,
2.5462,0.14345,,
2.5475,0.14336,,
2.5486999999999997,0.14331,,
2.55,0.14314,,
2.5511999999999997,0.14226,,
2.5525,0.14153,,
2.5538000000000003,0.14162,,
2.555,0.14234,,
2.5563000000000002,0.14252,,
2.5575,0.14258,,
2.5588,0.14313,,
2.5601,0.14287,,
2.5613,0.14193,,
2.5625999999999998,0.14355,,
2.5639000000000003,0.14485,,
2.5650999999999997,0.14434,,
2.5664000000000002,0.14447,,
2.5677,0.14408,,
2.5689,0.14313,,
2.5702,0.14276,,
2.5715,0.14398,,
2.5728,0.14525,,
2.574,0.14393,,
2.5753000000000004,0.14391,,
2.5766,0.14414,,
2.5779,0.14325,,
2.5791999999999997,0.14392,,
2.5805,0.14453,,
2.5816999999999997,0.14307,,
2.583,0.14258,,
2.5843000000000003,0.14284,,
2.5856,0.14407,,
2.5869,0.14545,,
2.5881999999999996,0.14474,,
2.5895,0.14419,,
2.5908,0.1439,,
2.5921,0.14389,,
2.5934,0.14431,,
2.5947,0.14378,,
2.596,0.1445,,
2.5973,0.14874,,
2.5986,0.14885,,
2.5999,0.14612,,
2.6012,0.14445,,
2.6025,0.14415,,
2.6038,0.14401,,
2.6050999999999997,0.14393,,
2.6064000000000003,0.14429,,
2.6077,0.14586,,
2.609,0.1455,,
2.6103,0.14472,,
2.6117,0.14522,,
2.613,0.14596,,
2.6143,0.14562,,
2.6155999999999997,0.14518,,
2.6169000000000002,0.14446,,
2.6182,0.14456,,
2.6195999999999997,0.14582,,
2.6209000000000002,0.14461,,
2.6222,0.14481,,
2.6235,0.14685,,
2.6249000000000002,0.14585,,
2.6262,0.14518,,
2.6275,0.14455,,
2.6289000000000002,0.14536,,
2.6302,0.14672,,
2.6315,0.14631,,
2.6329000000000002,0.14755,,
2.6342,0.14704,,
2.6355999999999997,0.14476,,
2.6369000000000002,0.144,,
2.6382,0.14303,,
2.6395999999999997,0.14372,,
2.6409000000000002,0.14432,,
2.6423,0.14353,,
2.6435999999999997,0.14325,,
2.645,0.143,,
2.6463,0.14327,,
2.6477,0.14407,,
2.649,0.14327,,
2.6504000000000003,0.1425,,
2.6517,0.14211,,
2.6531,0.14202,,
2.6544,0.14396,,
2.6558,0.14551,,
2.6572,0.14403,,
2.6585,0.14296,,
2.6599,0.14244,,
2.6613,0.143,,
2.6626,0.14381,,
2.664,0.1436,,
2.6654,0.14234,,
2.6666999999999996,0.14348,,
2.6681,0.1459,,
2.6695,0.14529,,
2.6709,0.14267,,
2.6721999999999997,0.14327,,
2.6736,0.14491,,
2.675,0.14187,,
2.6764,0.13938,,
2.6778000000000004,0.14011,,
2.6791,0.14155,,
2.6805,0.14073,,
2.6819,0.14063,,
2.6833,0.13978,,
2.6847,0.13816,,
2.6860999999999997,0.13782,,
2.6875,0.13713,,
2.6889000000000003,0.13717,,
2.6903,0.13739,,
2.6917,0.13654,,
2.6931,0.13559,,
2.6945,0.13553,,
2.6959,0.13622,,
2.6973000000000003,0.1369,,
2.6986999999999997,0.1364,,
2.7001,0.13452,,
2.7015,0.13228,,
2.7029,0.13195,,
2.7043000000000004,0.13277,,
2.7056999999999998,0.13275,,
2.7071,0.13139,,
2.7085,0.12969,,
2.71,0.12887,,
2.7114000000000003,0.12898,,
2.7128,0.12885,,
2.7142,0.12885,,
2.7156,0.12778,,
2.7171,0.12555,,
2.7185,0.12358,,
2.7199,0.12273,,
2.7213000000000003,0.12211,,
2.7228000000000003,0.1223,,
2.7241999999999997,0.12186,,
2.7256,0.12073,,
2.7271,0.12157,,
2.7285,0.12069,,
2.7299,0.11957,,
2.7314000000000003,0.11865,,
2.7328,0.11831,,
2.7342,0.11753,,
2.7357,0.11622,,
2.7371,0.11698,,
2.7386,0.11783,,
2.74,0.11717,,
2.7415,0.11817,,
2.7429,0.11899,,
2.7444,0.11769,,
2.7458,0.11603,,
2.7473,0.11472,,
2.7487,0.11377,,
2.7502,0.11343,,
2.7517,0.11314,,
2.7531,0.11186,,
2.7546,0.11097,,
2.7561,0.11124,,
2.7575,0.11346,,
2.759,0.11325,,
2.7605,0.11058,,
2.7619000000000002,0.10941,,
2.7634000000000003,0.10945,,
2.7649,0.10992,,
2.7663,0.11041,,
2.7678000000000003,0.1094,,
2.7693000000000003,0.1087,,
2.7708000000000004,0.10861,,
2.7723,0.10915,,
2.7737,0.10931,,
2.7752,0.10859,,
2.7767,0.10825,,
2.7782,0.10723,,
2.7796999999999996,0.1063,,
2.7811999999999997,0.10575,,
2.7826999999999997,0.10562,,
2.7842,0.10605,,
2.7857,0.10675,,
2.7872,0.10671,,
2.7887,0.10576,,
2.7902,0.10587,,
2.7916999999999996,0.10611,,
2.7931999999999997,0.10569,,
2.7946999999999997,0.10438,,
2.7962,0.10323,,
2.7977,0.10349,,
2.7992,0.10432,,
2.8007,0.10364,,
2.8022,0.10341,,
2.8038000000000003,0.10365,,
2.8053000000000003,0.10402,,
2.8068,0.10402,,
2.8083,0.10323,,
2.8098,0.1025,,
2.8114,0.10261,,
2.8129,0.10266,,
2.8144,0.10269,,
2.8159,0.10236,,
2.8175,0.10157,,
2.819,0.10166,,
2.8205,0.10144,,
2.8221,0.10138,,
2.8236,0.10163,,
2.8251,0.10125,,
2.8266999999999998,0.10125,,
2.8282,0.10198,,
2.8298,0.1016,,
2.8313,0.10112,,
2.8329,0.10087,,
2.8344,0.09975,,
2.836,0.099231,,
2.8375,0.099901,,
2.8390999999999997,0.10064,,
2.8406,0.10034,,
2.8421999999999996,0.099776,,
2.8436999999999997,0.10029,,
2.8453000000000004,0.10047,,
2.8469,0.10038,,
2.8484000000000003,0.10052,,
2.85,0.10043,,
2.8516,0.10008,,
2.8531,0.099931,,
2.8547,0.099625,,
2.8563,0.099201,,
2.8578,0.099995,,
2.8594,0.099955,,
2.861,0.099499,,
2.8626,0.099906,,
2.8642,0.10001,,
2.8657,0.10026,,
2.8673,0.10056,,
2.8689,0.10001,,
2.8705,0.09922,,
2.8721,0.098475,,
2.8737,0.098207,,
2.8753,0.098784,,
2.8769,0.099167,,
2.8785,0.099161,,
2.8801,0.099233,,
2.8817,0.099092,,
2.8833,0.098622,,
2.8849,0.098771,,
2.8865,0.09916,,
2.8881,0.098899,,
2.8897,0.099046,,
2.8913,0.099171,,
2.8929,0.099131,,
2.8945,0.098562,,
2.8962,0.098803,,
2.8978,0.099114,,
2.8994,0.098075,,
2.901,0.097628,,
2.9027,0.098524,,
2.9043,0.099026,,
2.9059,0.099295,,
2.9075,0.099188,,
2.9092,0.09836,,
2.9108,0.097724,,
2.9124,0.097734,,
2.9141,0.098305,,
2.9156999999999997,0.098599,,
2.9174,0.098647,,
2.919,0.098733,,
2.9206,0.098079,,
2.9223000000000003,0.097758,,
2.9239,0.097832,,
2.9255999999999998,0.097809,,
2.9272,0.098275,,
2.9289,0.098594,,
2.9305,0.097992,,
2.9322,0.097945,,
2.9339,0.098156,,
2.9355,0.097868,,
2.9372,0.097773,,
2.9389000000000003,0.097004,,
2.9405,0.096687,,
2.9421999999999997,0.097391,,
2.9439,0.098098,,
2.9455,0.09779,,
2.9471999999999996,0.097202,,
2.9489,0.097441,,
2.9506,0.097334,,
2.9522,0.096998,,
2.9539,0.096987,,
2.9556,0.09723,,
2.9573,0.096859,,
2.959,0.096674,,
2.9606999999999997,0.09713,,
2.9624,0.097074,,
2.9640999999999997,0.096676,,
2.9658,0.096851,,
2.9674,0.096759,,
2.9691,0.096057,,
2.9709,0.095778,,
2.9726,0.09621,,
2.9743000000000004,0.096574,,
2.976,0.096723,,
2.9777,0.096591,,
2.9794,0.09637,,
2.9811,0.096557,,
2.9828,0.0965,,
2.9845,0.09597,,
2.9863000000000004,0.095648,,
2.988,0.095427,,
2.9897,0.095769,,
2.9914,0.096119,,
2.9931,0.096035,,
2.9949,0.09587,,
2.9966,0.095703,,
2.9983,0.096065,,
3.0000999999999998,0.09611,,
3.0018000000000002,0.09625,,
3.0036,0.096668,,
3.0053,0.096738,,
3.007,0.096036,,
3.0088000000000004,0.096078,,
3.0105,0.096308,,
3.0123,0.096008,,
3.014,0.095969,,
3.0158,0.096146,,
3.0175,0.096423,,
3.0193000000000003,0.096483,,
3.0211,0.096383,,
3.0228,0.096025,,
3.0246,0.095718,,
3.0263,0.095606,,
3.0281,0.095448,,
3.0299,0.095986,,
3.0317,0.096312,,
3.0334,0.095767,,
3.0351999999999997,0.095927,,
3.037,0.095597,,
3.0388,0.095286,,
3.0405,0.095029,,
3.0423,0.09521,,
3.0441,0.095299,,
3.0459,0.095363,,
3.0477,0.095388,,
3.0495,0.095101,,
3.0513000000000003,0.095423,,
3.0530999999999997,0.095601,,
3.0549,0.094784,,
3.0566999999999998,0.094639,,
3.0585,0.094952,,
3.0603000000000002,0.095391,,
3.0621,0.095572,,
3.0639000000000003,0.094875,,
3.0656999999999996,0.094526,,
3.0675,0.094799,,
3.0694,0.094828,,
3.0711999999999997,0.095361,,
3.073,0.095539,,
3.0748,0.09505,,
3.0766,0.094641,,
3.0785,0.094573,,
3.0803000000000003,0.09436,,
3.0821,0.094035,,
3.084,0.094267,,
3.0858000000000003,0.094903,,
3.0876,0.095393,,
3.0895,0.094805,,
3.0913000000000004,0.094373,,
3.0932,0.094313,,
3.095,0.094324,,
3.0969,0.094454,,
3.0987,0.094613,,
3.1006,0.094903,,
3.1024000000000003,0.094771,,
3.1043000000000003,0.09436,,
3.1061,0.09396,,
3.108,0.094235,,
3.1099,0.094707,,
3.1117,0.094539,,
3.1136,0.094096,,
3.1155,0.094286,,
3.1173,0.094409,,
3.1191999999999998,0.094015,,
3.1210999999999998,0.093658,,
3.123,0.094232,,
3.1249000000000002,0.094454,,
3.1267,0.094232,,
3.1286,0.094284,,
3.1305,0.094343,,
3.1324,0.094113,,
3.1343,0.094475,,
3.1361999999999997,0.094505,,
3.1381,0.094183,,
3.14,0.09422,,
3.1419,0.094079,,
